E(GeV) dN/dE (GeV^-1)
1.2589254117941663e-05 0.0
1.4125375446227555e-05 0.0307456947645
1.584893192461111e-05 0.0
1.778279410038923e-05 0.0
1.9952623149688827e-05 0.0435325699929
2.2387211385683376e-05 0.0775968876912
2.511886431509582e-05 0.069158298951
2.8183829312644495e-05 0.0770467485248
3.1622776601683795e-05 0.0686679869029
3.54813389233576e-05 0.0979206523951
3.981071705534969e-05 0.130907809965
4.466835921509635e-05 0.14583963555
5.011872336272715e-05 0.155975654401
5.623413251903491e-05 0.146736417662
6.309573444801943e-05 0.19272690301
7.079457843841373e-05 0.226979186611
7.943282347242822e-05 0.27883962333
8.912509381337441e-05 0.341100496308
0.0001 0.390865033713
0.0001122018454301963 0.460607783663
0.0001258925411794166 0.4933104879
0.00014125375446227554 0.556497075237
0.00015848931924611142 0.638469612746
0.00017782794100389227 0.732665203429
0.00019952623149688788 0.844531857863
0.00022387211385683378 0.997120006831
0.0002511886431509582 1.19643857185
0.0002818382931264455 1.38838240842
0.00031622776601683794 1.6274312896
0.0003548133892335753 1.91312474617
0.0003981071705534969 2.22106917573
0.0004466835921509635 2.59400098432
0.0005011872336272725 2.96440396504
0.0005623413251903491 3.38343287251
0.000630957344480193 3.86692764682
0.0007079457843841373 4.41811919452
0.0007943282347242822 5.02567415225
0.0008912509381337459 5.66762838937
0.001 6.45839324038
0.001122018454301963 7.32714734852
0.0012589254117941662 8.2576036006
0.0014125375446227555 9.28458490497
0.001584893192461114 10.459666776
0.0017782794100389228 11.7802795842
0.001995262314968879 13.2069110845
0.0022387211385683377 14.7292472293
0.0025118864315095825 16.4230212519
0.002818382931264455 18.2784165265
0.0031622776601683794 20.2578801522
0.0035481338923357532 22.4115893169
0.003981071705534969 24.7200853845
0.004466835921509635 27.1812995945
0.005011872336272725 29.8112802132
0.00562341325190349 32.6388130696
0.006309573444801929 35.6733367609
0.0070794578438413735 38.8528862124
0.007943282347242822 42.149452137
0.008912509381337459 45.4798550169
0.01 48.9121120182
0.01122018454301963 52.4670197998
0.012589254117941661 56.1121016561
0.014125375446227554 59.7611448104
0.01584893192461114 63.2916297222
0.01778279410038923 66.812203922
0.01995262314968879 70.2414776875
0.022387211385683375 73.5183370764
0.025118864315095822 76.604451972
0.02818382931264455 79.4848312444
0.03162277660168379 81.9916089344
0.03548133892335753 84.2266449989
0.03981071705534969 86.1458370554
0.04466835921509635 87.7017829419
0.05011872336272725 88.8611413631
0.05623413251903491 89.6232984769
0.0630957344480193 89.8959909247
0.07079457843841373 89.7442515822
0.07943282347242822 89.1905440464
0.08912509381337459 88.2399988281
0.1 86.8962761067
0.1122018454301963 85.176965437
0.12589254117941662 83.0346457233
0.14125375446227556 80.5940340379
0.1584893192461114 77.8725137204
0.1778279410038923 74.9109971609
0.19952623149688786 71.7575429701
0.22387211385683378 68.4535901568
0.25118864315095824 64.949765761
0.2818382931264455 61.3760793628
0.31622776601683794 57.768417597
0.35481338923357536 54.1603938749
0.3981071705534969 50.5853642905
0.4466835921509635 47.0775263213
0.5011872336272725 43.6142105705
0.5623413251903491 40.2747028516
0.6309573444801929 37.0690945898
0.7079457843841374 34.0106735845
0.7943282347242822 31.1106222839
0.8912509381337459 28.3747834494
1.0 25.7921351878
1.1220184543019631 23.3841398317
1.2589254117941675 21.1468459014
1.4125375446227542 19.0760002899
1.5848931924611143 17.1663231256
1.7782794100389228 15.4111912716
1.9952623149688788 13.797681144
2.23872113856834 12.3251008805
2.5118864315095797 10.9862306212
2.818382931264455 9.77236534469
3.1622776601683795 8.67446614117
3.5481338923357533 7.6838417943
3.9810717055349736 6.78871015369
4.46683592150963 5.98549334756
5.0118723362727255 5.26703390366
5.623413251903491 4.62569697437
6.30957344480193 4.05416458633
7.07945784384138 3.54583676942
7.943282347242813 3.09422239277
8.91250938133746 2.69481208779
10.0 2.34244989096
11.22018454301963 2.03227736763
12.589254117941675 1.75981265239
14.12537544622754 1.52097891273
15.84893192461114 1.31135134011
17.78279410038923 1.12841377577
19.95262314968879 0.969039753093
22.3872113856834 0.830544358761
25.118864315095795 0.710514537871
28.183829312644548 0.606726009436
31.622776601683793 0.516759520877
35.481338923357534 0.439265155478
39.810717055349734 0.37261227032
44.6683592150963 0.315455244373
50.118723362727245 0.266564464382
56.23413251903491 0.22476422599
63.0957344480193 0.189034172951
70.79457843841381 0.158667045977
79.43282347242814 0.132904838682
89.12509381337459 0.111091826791
100.0 0.0926622910264
112.20184543019636 0.0771287075732
125.89254117941675 0.0640237117693
141.2537544622754 0.053041270451
158.48931924611134 0.0438414832544
177.8279410038923 0.0361500259521
199.526231496888 0.0297381433439
223.87211385683398 0.0244106268019
251.18864315095794 0.0199798533144
281.83829312644536 0.0163123822848
316.2277660168379 0.0132798200961
354.8133892335755 0.0107792241444
398.1071705534973 0.00872303318981
446.683592150963 0.00703477607945
501.1872336272722 0.0056506461472
562.3413251903492 0.00452086175861
630.9573444801933 0.00360171477896
707.945784384138 0.00285707474626
794.3282347242814 0.0022559563465
891.2509381337455 0.00177160385943
1000.0 0.0013795572679
1122.0184543019636 0.00106625670068
1258.9254117941673 0.000817287838673
1412.5375446227545 0.000620729443454
1584.8931924611134 0.000466795546688
1778.2794100389228 0.000347432281683
1995.2623149688798 0.000254160121321
2238.7211385683395 0.000183021765238
2511.8864315095802 0.000129330341432
2818.382931264454 8.95782480788e-05
3162.2776601683795 6.06998910386e-05
3548.133892335755 4.00245770632e-05
3981.071705534972 2.53987332893e-05
4466.835921509632 1.55299766576e-05
5011.872336272722 9.09286073275e-06
5623.413251903491 5.10696794248e-06
6309.573444801932 2.71221817364e-06
7079.457843841379 1.39285471135e-06
7943.2823472428145 7.19515577063e-07
8912.509381337455 3.91437183834e-07
10000.0 2.61792713691e-07
