E(GeV) dN/dE (GeV^-1)
1.5107104941529995e-05 0.0287476974301
1.6950450535473067e-05 0.0512428246075
1.901871830953333e-05 0.022835107752
2.1339352920467075e-05 0.0407036224127
2.3943147779626594e-05 0.0544157124912
2.6864653662820054e-05 0.064664073076
3.0142637178114986e-05 0.0720398947406
3.382059517517339e-05 0.0898878732789
3.794733192202056e-05 0.125891309322
4.257760670802912e-05 0.142800951409
4.777286046641963e-05 0.145453122183
5.360203105811562e-05 0.1620440395
6.0142468035272574e-05 0.202190663113
6.748095902284189e-05 0.257432311687
7.571488133762331e-05 0.326947424749
8.495349412609648e-05 0.347625781296
9.531938816691387e-05 0.400945863611
0.0001069501125760493 0.487286423297
0.00012 0.579059309204
0.00013464221451623556 0.667687753629
0.00015107104941529994 0.730191514723
0.00016950450535473065 0.801950205107
0.0001901871830953337 0.915687820855
0.00021339352920467073 1.06643490721
0.00023943147779626543 1.23160895938
0.0002686465366282005 1.43554242229
0.00030142637178114985 1.70734550535
0.0003382059517517346 1.97753321214
0.0003794733192202055 2.23857637303
0.0004257760670802904 2.53165686713
0.0004777286046641963 2.90815336165
0.0005360203105811562 3.34782985607
0.000601424680352727 3.84306681817
0.0006748095902284188 4.36605200622
0.0007571488133762315 4.94952513712
0.0008495349412609648 5.63000401384
0.0009531938816691386 6.42743556587
0.0010695011257604952 7.31335706965
0.0012 8.2841672423
0.0013464221451623556 9.31214755907
0.0015107104941529993 10.4785357133
0.0016950450535473066 11.7648401016
0.0019018718309533368 13.1342972768
0.002133935292046707 14.694007691
0.0023943147779626546 16.3533726893
0.0026864653662820055 18.1579950401
0.0030142637178114987 20.1161320478
0.003382059517517346 22.2544396664
0.003794733192202055 24.5949273156
0.004257760670802904 27.115248655
0.004777286046641963 29.7497088965
0.005360203105811562 32.5516497208
0.00601424680352727 35.5225887585
0.006748095902284188 38.6625360888
0.007571488133762316 41.9714454581
0.008495349412609649 45.4521731473
0.009531938816691387 48.9239154602
0.01069501125760495 52.5094164737
0.012 56.1738921442
0.013464221451623556 59.8695610302
0.015107104941529993 63.5458939905
0.016950450535473064 67.16409832
0.019018718309533368 70.6352679316
0.021339352920467076 73.9708965288
0.023943147779626545 77.1517398999
0.02686465366282005 80.1261582454
0.030142637178114988 82.8435592671
0.03382059517517346 85.2963750296
0.03794733192202055 87.3726544146
0.042577606708029035 89.077244476
0.04777286046641963 90.3921973226
0.05360203105811562 91.3121970618
0.0601424680352727 91.834861985
0.06748095902284189 91.9504067706
0.07571488133762315 91.5341971327
0.08495349412609648 90.7076003268
0.09531938816691386 89.4792888551
0.10695011257604951 87.8714511118
0.12000000000000001 85.9095756918
0.13464221451623556 83.6131504027
0.15107104941529995 80.9461220553
0.16950450535473066 78.0114689549
0.1901871830953337 74.8658324373
0.21339352920467075 71.5534778659
0.23943147779626545 68.1099725106
0.26864653662820054 64.5655735266
0.30142637178114984 60.8972061471
0.33820595175173457 57.2129392054
0.37947331922020555 53.5546161942
0.4257760670802904 49.9503294934
0.4777286046641963 46.4204057723
0.5360203105811562 42.9819205865
0.601424680352727 39.6398282822
0.6748095902284189 36.4437714015
0.7571488133762315 33.4079920482
0.8495349412609647 30.5370630441
0.9531938816691387 27.8335666273
1.0695011257604952 25.3026829452
1.2 22.9286282017
1.3464221451623557 20.7247840215
1.510710494153001 18.6876278619
1.695045053547305 16.8119108991
1.9018718309533371 15.0909814857
2.1339352920467074 13.5171145496
2.3943147779626544 12.0753167535
2.686465366282008 10.7642386439
3.0142637178114953 9.57500928146
3.382059517517346 8.49917052195
3.794733192202055 7.52855345343
4.257760670802904 6.65522202033
4.777286046641969 5.86957647477
5.360203105811556 5.16642629091
6.0142468035272705 4.53875448669
6.748095902284189 3.97971715769
7.571488133762315 3.48281925813
8.495349412609656 3.04201181527
9.531938816691376 2.6507605396
10.695011257604952 2.30542715133
12.0 2.00129596253
13.464221451623557 1.73396693636
15.10710494153001 1.49946848512
16.95045053547305 1.29428319319
19.01871830953337 1.11465840384
21.33935292046707 0.957987533706
23.943147779626546 0.82179093304
26.86465366282008 0.70359796178
30.142637178114953 0.601215958244
33.82059517517346 0.512819999264
37.94733192202055 0.436328543014
42.57760670802904 0.370494467415
47.77286046641968 0.313961491496
53.602031058115564 0.26553649555
60.14246803527269 0.224155811885
67.48095902284189 0.188866624911
75.71488133762317 0.158727175701
84.95349412609656 0.133116442675
95.31938816691377 0.111405327785
106.9501125760495 0.0930444350529
120.0 0.0775509739944
134.64221451623564 0.0645006110339
151.0710494153001 0.0535042974053
169.50450535473047 0.0442889119698
190.1871830953336 0.0365795522574
213.39352920467076 0.0301445268026
239.4314777962656 0.0247859362249
268.6465366282008 0.0203336598104
301.42637178114956 0.0166256910878
338.2059517517344 0.0135600543852
379.4733192202055 0.0110305564665
425.7760670802906 0.00894753939287
477.72860466419684 0.00723662737078
536.0203105811556 0.00583651031692
601.4246803527267 0.00468531368865
674.809590228419 0.00374670847914
757.1488133762319 0.00298400612628
849.5349412609656 0.00236600548051
953.1938816691377 0.00186658752133
1069.5011257604947 0.00146412433962
1200.0 0.00113893040246
1346.4221451623564 0.000879911177179
1510.7104941530008 0.00067459289294
1695.0450535473053 0.000512546360785
1901.871830953336 0.00038536687688
2133.9352920467077 0.000286356903289
2394.3147779626556 0.000209379690209
2686.4653662820074 0.000150645627803
3014.263717811496 0.00010643159641
3382.0595175173444 7.37052310412e-05
3794.7331922020553 4.9902399442e-05
4257.760670802905 3.28869571089e-05
4777.286046641966 2.08907955817e-05
5360.203105811558 1.27574031418e-05
6014.246803527267 7.46480707117e-06
6748.095902284189 4.19923586824e-06
7571.488133762319 2.23689397725e-06
8495.349412609656 1.1517148863e-06
9531.938816691378 5.97409336781e-07
10695.011257604947 3.25629152368e-07
12000.0 2.17871065088e-07
