E(GeV) dN/dE (GeV^-1)
1.8883881176912493e-05 0.0
2.118806316934133e-05 0.0
2.3773397886916663e-05 0.0182680862016
2.6674191150583842e-05 0.0325628979302
2.992893472453324e-05 0.0580434266572
3.3580817078525065e-05 0.0775968876912
3.767829647264373e-05 0.092211065268
4.227574396896674e-05 0.133547697443
4.743416490252569e-05 0.173958900154
5.3222008385036405e-05 0.228481522255
5.9716075583024535e-05 0.269088276038
6.700253882264452e-05 0.29816103268
7.517808504409072e-05 0.329281937069
8.435119877855237e-05 0.391297113765
9.464360167202914e-05 0.431341163879
0.00010619186765762061 0.478496663666
0.00011914923520864232 0.550389321866
0.00013368764072006162 0.636720926441
0.00015000000000000001 0.741195915782
0.00016830276814529444 0.890250338172
0.0001888388117691249 1.01421876533
0.0002118806316934133 1.17448554
0.00023773397886916713 1.36645284788
0.00026674191150583845 1.57930054961
0.0002992893472453318 1.81675925437
0.0003358081707852507 2.09899581205
0.0003767829647264373 2.41016671844
0.00042275743968966825 2.76854649699
0.00047434164902525685 3.16238969017
0.000532220083850363 3.61327207338
0.0005971607558302453 4.15341390393
0.0006700253882264452 4.79002180762
0.0007517808504409087 5.44759415187
0.0008435119877855235 6.15623630169
0.0009464360167202895 6.92577892173
0.0010619186765762059 7.785181615
0.0011914923520864233 8.75920913495
0.0013368764072006188 9.81654742612
0.0015 11.0035745232
0.0016830276814529446 12.3388696871
0.0018883881176912493 13.7848658901
0.002118806316934133 15.3576795062
0.002377339788691671 17.0971018761
0.002667419115058384 18.9968690235
0.002992893472453318 21.0294236951
0.003358081707852507 23.2625123046
0.0037678296472643735 25.6481620128
0.004227574396896683 28.1942816972
0.004743416490252569 30.9197295853
0.005322200838503629 33.7748730247
0.005971607558302454 36.8456758255
0.006700253882264452 40.0346652165
0.007517808504409087 43.383357359
0.008435119877855236 46.8970105712
0.009464360167202894 50.5325350956
0.01061918676576206 54.1865571825
0.011914923520864233 57.8668033627
0.01336876407200619 61.5683472117
0.015 65.2865629696
0.016830276814529446 68.9833053345
0.018883881176912493 72.596100357
0.021188063169341333 76.0531449862
0.023773397886916712 79.2270274605
0.026674191150583844 82.244827686
0.02992893472453318 85.0211987596
0.03358081707852506 87.5015484283
0.03767829647264374 89.6534069507
0.04227574396896683 91.4542028577
0.04743416490252569 92.8040518407
0.053222008385036296 93.7416192723
0.05971607558302454 94.2576085901
0.06700253882264452 94.350355897
0.07517808504409088 94.0226386151
0.08435119877855236 93.278487195
0.09464360167202894 92.0302807698
0.1061918676576206 90.3969680632
0.11914923520864233 88.3963996868
0.1336876407200619 86.0651810465
0.15000000000000002 83.4433295218
0.16830276814529446 80.5608019672
0.18883881176912493 77.3578045644
0.2118806316934133 73.971101879
0.2377339788691671 70.4375259459
0.2667419115058384 66.80728204
0.2992893472453318 63.1251214057
0.3358081707852507 59.4166378637
0.37678296472643735 55.6684563586
0.4227574396896682 51.9637357533
0.47434164902525694 48.3322665519
0.532220083850363 44.8031530444
0.5971607558302454 41.3993265403
0.6700253882264452 38.134300225
0.7517808504409088 34.9950282588
0.8435119877855236 32.0244626996
0.9464360167202894 29.2287106477
1.0619186765762059 26.6079835942
1.1914923520864233 24.1600894166
1.3368764072006187 21.8826253374
1.5 19.7610923501
1.6830276814529446 17.8048047153
1.8883881176912511 16.0067577159
2.118806316934131 14.3588029211
2.377339788691671 12.8525421895
2.667419115058384 11.4798481009
2.9928934724533183 10.2261403905
3.35808170785251 9.09154765268
3.7678296472643695 8.06750149319
4.227574396896682 7.14511133567
4.743416490252569 6.31588559423
5.32220083850363 5.57209655122
5.97160755830246 4.90444357323
6.7002538822644455 4.3087587236
7.517808504409088 3.77806113352
8.435119877855236 3.30640613864
9.464360167202894 2.88826075454
10.61918676576207 2.51821191566
11.91492352086422 2.19071089996
13.368764072006188 1.90235099321
15.0 1.64883131206
16.830276814529444 1.42636693634
18.883881176912514 1.23157221723
21.18806316934131 1.06138573906
23.77339788691671 0.912748412713
26.67419115058384 0.783370910696
29.928934724533185 0.671099680694
33.5808170785251 0.57383313591
37.678296472643694 0.489710445086
42.27574396896682 0.41717104782
47.434164902525694 0.354468515676
53.2220083850363 0.300632600561
59.716075583024605 0.254480513522
67.00253882264445 0.214990296003
75.17808504409086 0.181279174657
84.35119877855236 0.152582921703
94.64360167202895 0.128086717315
106.1918676576207 0.107316679616
119.14923520864221 0.0897276748176
133.6876407200619 0.0748656205424
150.0 0.0623375152432
168.30276814529452 0.0517963284189
188.83881176912513 0.0429333890157
211.8806316934131 0.0355042264403
237.733978869167 0.0293014549176
266.74191150583846 0.0241298725944
299.28934724533195 0.0198231724577
335.808170785251 0.0162468160283
376.7829647264369 0.0132761054115
422.75743968966805 0.0108204936454
474.34164902525686 0.00879595345204
532.2200838503633 0.0071305353951
597.160755830246 0.00576337124127
670.0253882264445 0.0046433985271
751.7808504409084 0.00372494010052
843.5119877855236 0.00297636133641
946.43601672029 0.00236843192405
1061.918676576207 0.0018762103655
1191.492352086422 0.00147895770772
1336.8764072006184 0.0011596439053
1500.0 0.000901938147542
1683.0276814529454 0.000696342976688
1888.388117691251 0.000533372589094
2118.8063169341317 0.000404918340392
2377.33978869167 0.000304303934159
2667.4191150583843 0.000226118717001
2992.8934724533196 0.000165017316878
3358.081707852509 0.000118633872418
3767.82964726437 8.37520831956e-05
4227.574396896681 5.79426476766e-05
4743.416490252569 3.92009056912e-05
5322.200838503632 2.58474618084e-05
5971.607558302458 1.63588217457e-05
6700.253882264447 9.98165356274e-06
7517.808504409084 5.84157710113e-06
8435.119877855235 3.28854332242e-06
9464.360167202898 1.7620745418e-06
10619.186765762068 9.165051481e-07
11914.923520864222 4.74792801764e-07
13368.764072006183 2.58489204678e-07
15000.0 1.73312451245e-07
