E(GeV) dN/dE (GeV^-1)
2.5178508235883326e-05 0.0862430922902
2.825075089245511e-05 0.0768642369112
3.169786384922222e-05 0.068505323256
3.556558820077846e-05 0.0732665203429
3.9905246299377654e-05 0.108831424982
4.477442277136675e-05 0.155193775382
5.023772863019164e-05 0.198830109484
5.636765862528899e-05 0.254254270132
6.324555320336759e-05 0.281538746302
7.09626778467152e-05 0.324362161059
7.962143411069938e-05 0.370905461567
8.93367184301927e-05 0.432657585465
0.0001002374467254543 0.511253533871
0.00011246826503806981 0.583084185972
0.00012619146889603886 0.691751919731
0.00014158915687682746 0.806696298361
0.00015886564694485644 0.929465411099
0.00017825018762674882 1.07203013125
0.0002 1.24859663547
0.0002244036908603926 1.46891305798
0.0002517850823588332 1.68174029966
0.0002825075089245511 1.91699406856
0.00031697863849222284 2.20176108945
0.00035565588200778454 2.53257938652
0.00039905246299377575 2.90144579003
0.00044774422771366756 3.35315550935
0.0005023772863019165 3.82272497452
0.000563676586252891 4.28456968546
0.0006324555320336759 4.82598611953
0.0007096267784671506 5.45540434656
0.0007962143411069938 6.14939437309
0.000893367184301927 6.97016231506
0.001002374467254545 7.86723870172
0.0011246826503806982 8.8613350329
0.001261914688960386 9.9598510234
0.0014158915687682745 11.1722836394
0.0015886564694485644 12.4991228018
0.0017825018762674919 13.9181184654
0.002 15.5288506422
0.002244036908603926 17.2784043351
0.0025178508235883324 19.1645949964
0.002825075089245511 21.2069966923
0.003169786384922228 23.4290945749
0.0035565588200778455 25.8260820883
0.003990524629937758 28.3608163618
0.0044774422771366755 31.078135497
0.005023772863019165 33.9782503055
0.00563676586252891 37.0809050365
0.006324555320336759 40.3851537933
0.0070962677846715064 43.8061502579
0.007962143411069938 47.3018462382
0.00893367184301927 50.9358052726
0.01002374467254545 54.6584185921
0.01124682650380698 58.4542668734
0.012619146889603859 62.3085733275
0.014158915687682747 66.1563352613
0.015886564694485645 69.8773462925
0.017825018762674918 73.5702118175
0.02 77.1468774555
0.02244036908603926 80.5629334071
0.025178508235883322 83.7935297399
0.028250750892455108 86.7995544458
0.03169786384922228 89.4200532503
0.03556558820077846 91.7436285303
0.03990524629937758 93.7388244466
0.04477442277136675 95.3657505055
0.050237728630191644 96.5876732956
0.0563676586252891 97.3837308971
0.06324555320336758 97.6343068201
0.07096267784671506 97.4839140453
0.07962143411069939 96.8986482019
0.0893367184301927 95.8988843882
0.1002374467254545 94.5105362389
0.11246826503806982 92.7184753799
0.1261914688960386 90.4468629199
0.14158915687682747 87.8821603445
0.15886564694485644 85.0352923819
0.17825018762674918 81.9344954556
0.2 78.6175636031
0.2244036908603926 75.1248624403
0.25178508235883323 71.4337493064
0.2825075089245511 67.6558721208
0.3169786384922228 63.8301802106
0.3556558820077846 59.9987521139
0.3990524629937757 56.2000711792
0.44774422771366756 52.464302356
0.5023772863019165 48.7649222328
0.563676586252891 45.17943054
0.6324555320336759 41.7289231224
0.7096267784671507 38.4285769179
0.7962143411069939 35.2878676142
0.893367184301927 32.3110843252
1.002374467254545 29.486353463
1.1246826503806981 26.8428913881
1.2619146889603858 24.3775434561
1.4158915687682747 22.0872955725
1.5886564694485643 19.9673601576
1.7825018762674918 18.0102643295
2.0 16.2006586048
2.2440369086039262 14.541590746
2.517850823588335 13.0258406648
2.8250750892455083 11.6446056802
3.1697863849222285 10.3891487664
3.5565588200778455 9.25167698229
3.9905246299377577 8.21786851862
4.47744227713668 7.28525955485
5.023772863019159 6.44627504263
5.63676586252891 5.69362196443
6.324555320336759 5.01979581312
7.0962677846715065 4.41695172748
7.962143411069947 3.87818046985
8.93367184301926 3.39860836519
10.023744672545451 2.97286347796
11.246826503806982 2.59589098902
12.61914688960386 2.26284480388
14.15891568768276 1.96906407448
15.886564694485626 1.70959719577
17.82501876267492 1.48139736013
20.0 1.28137012568
22.44036908603926 1.10645372908
25.17850823588335 0.953764720698
28.25075089245508 0.820672785685
31.69786384922228 0.704420632818
35.56558820077846 0.60347672927
39.90524629937758 0.516107435828
44.7744227713668 0.440621491853
50.23772863019159 0.375482198514
56.367658625289096 0.319350651908
63.245553203367585 0.270982581478
70.96267784671507 0.229514742219
79.62143411069947 0.194011576125
89.3367184301926 0.163676921636
100.23744672545449 0.137814330128
112.46826503806982 0.115805473619
126.1914688960386 0.0970787470807
141.58915687682762 0.0812158123066
158.86564694485628 0.0678177001485
178.25018762674918 0.0565209564734
200.0 0.0470108706642
224.40369086039271 0.0390225211232
251.7850823588335 0.0323065606051
282.5075089245508 0.0266879502218
316.9786384922227 0.0220012942966
355.6558820077846 0.0180983446994
399.052462993776 0.0148531735774
447.74422771366795 0.0121618087059
502.3772863019159 0.00992627681678
563.6765862528907 0.0080834420615
632.4555320336758 0.00656490263259
709.626778467151 0.0053169482161
796.2143411069947 0.00429422616244
893.367184301926 0.00345712029647
1002.3744672545444 0.00277152966999
1124.6826503806983 0.00221360497154
1261.9146889603867 0.00176028114914
1415.891568768276 0.00139315346504
1588.6564694485628 0.00109715409313
1782.501876267491 0.00085973137514
2000.0 0.000668588971884
2244.0369086039273 0.000516055090649
2517.8508235883346 0.000394951966005
2825.075089245509 0.000299476133926
3169.7863849222267 0.000224796244956
3556.5588200778457 0.000166854120657
3990.5246299377595 0.000121783126375
4477.442277136679 8.74784633542e-05
5023.7728630191605 6.17326859448e-05
5636.765862528908 4.26747301196e-05
6324.555320336759 2.88128813005e-05
7096.26778467151 1.89641091481e-05
7962.143411069944 1.19990098614e-05
8933.671843019263 7.31546195883e-06
10023.744672545445 4.28478120612e-06
11246.826503806982 2.4178300146e-06
12619.146889603864 1.29908257284e-06
14158.915687682758 6.80078719667e-07
15886.564694485629 3.57680159965e-07
17825.01876267491 1.9640079291e-07
20000.0 1.31374080776e-07
