E(GeV) dN/dE (GeV^-1)
3.7767762353824985e-05 0.17248618458
4.237612633868266e-05 0.174225603665
4.7546795773833325e-05 0.237485120621
5.3348382301167684e-05 0.317488254819
5.985786944906648e-05 0.391793129936
6.716163415705013e-05 0.472047733455
7.535659294528746e-05 0.530213625291
8.455148793793348e-05 0.570145939083
9.486832980505138e-05 0.613434016332
0.00010644401677007281 0.685444566766
0.00011943215116604907 0.756356235351
0.00013400507764528904 0.83938812461
0.00015035617008818145 0.973403620986
0.00016870239755710473 1.20220889558
0.00018928720334405829 1.36285452843
0.00021238373531524122 1.57863001859
0.00023829847041728465 1.82794864183
0.00026737528144012325 2.08233731556
0.00030000000000000003 2.33505666437
0.0003366055362905889 2.66688036087
0.0003776776235382498 3.05990491446
0.0004237612633868266 3.4978352077
0.00047546795773833426 3.97422215316
0.0005334838230116769 4.49449398681
0.0005985786944906635 5.08532971801
0.0006716163415705014 5.79972071418
0.0007535659294528746 6.5377645275
0.0008455148793793365 7.40830169315
0.0009486832980505137 8.36376080477
0.001064440167700726 9.38161450489
0.0011943215116604906 10.476624758
0.0013400507764528904 11.7067095896
0.0015035617008818175 13.0638275875
0.001687023975571047 14.528964807
0.001892872033440579 16.1851594274
0.0021238373531524118 18.0156038728
0.0023829847041728467 19.9727536996
0.0026737528144012376 22.1130578892
0.003 24.326860639
0.003366055362905889 26.7493132045
0.0037767762353824986 29.3693376393
0.004237612633868266 32.1731148867
0.004754679577383342 35.1389378301
0.005334838230116768 38.2309587584
0.005985786944906636 41.5436394242
0.006716163415705014 45.012467276
0.007535659294528747 48.658338344
0.008455148793793365 52.4327778671
0.009486832980505138 56.2668689188
0.010644401677007259 60.1498415475
0.011943215116604908 64.0425733378
0.013400507764528904 67.9579320591
0.015035617008818175 71.9017149347
0.016870239755710472 75.8118078199
0.018928720334405787 79.6032087651
0.02123837353152412 83.2321430586
0.023829847041728466 86.5965792198
0.02673752814401238 89.7470165551
0.03 92.6414260718
0.03366055362905889 95.2303367178
0.03776776235382499 97.4753121365
0.042376126338682665 99.3698497618
0.047546795773833424 100.732976663
0.05334838230116769 101.693213852
0.05985786944906636 102.213843121
0.06716163415705012 102.29322882
0.07535659294528747 101.942825148
0.08455148793793366 101.164111797
0.09486832980505137 99.8585064056
0.10644401677007259 98.1480649502
0.11943215116604908 96.0499692335
0.13400507764528904 93.6036018681
0.15035617008818175 90.8535945915
0.16870239755710473 87.8348492752
0.18928720334405788 84.4581646464
0.2123837353152412 80.8932247835
0.23829847041728466 77.1824250166
0.2673752814401238 73.3630761047
0.30000000000000004 69.4713666913
0.3366055362905889 65.5452540046
0.37767762353824985 61.5638920406
0.4237612633868266 57.6210374338
0.4754679577383342 53.7494054167
0.5334838230116768 49.9799698199
0.5985786944906636 46.3346389066
0.6716163415705014 42.8220261183
0.7535659294528747 39.4366307163
0.8455148793793364 36.2199687455
0.9486832980505139 33.1790203433
1.064440167700726 30.3176142547
1.1943215116604908 27.6359343072
1.3400507764528904 25.1305123621
1.5035617008818176 22.7884599096
1.6870239755710472 20.6203315128
1.8928720334405789 18.6186706379
2.1238373531524117 16.7758928366
2.3829847041728467 15.0842232622
2.6737528144012375 13.5356873093
3.0 12.115655755
3.366055362905889 10.8246677881
3.7767762353825023 9.65280824056
4.237612633868262 8.59182342297
4.754679577383342 7.63365796162
5.334838230116768 6.76974409555
5.9857869449066365 5.99023123796
6.71616341570502 5.29136869485
7.535659294528739 4.66550639011
8.455148793793365 4.10634781773
9.486832980505138 3.60801635928
10.64440167700726 3.16460670255
11.94321511660492 2.76988438735
13.400507764528891 2.42017005584
15.035617008818177 2.11083958773
16.87023975571047 1.83786884297
18.92872033440579 1.59753998255
21.23837353152414 1.38630650496
23.82984704172844 1.20045181715
26.737528144012376 1.03761918226
30.0 0.895257192856
33.66055362905889 0.771040876356
37.76776235382503 0.662905562546
42.37612633868262 0.569042312812
47.54679577383342 0.487405007828
53.34838230116768 0.416659162879
59.85786944906637 0.355578943627
67.1616341570502 0.30292204473
75.35659294528739 0.257582412772
84.55148793793364 0.218643252691
94.86832980505139 0.185174016713
106.4440167700726 0.156530291841
119.43215116604921 0.132073671284
134.0050776452889 0.111225022608
150.35617008818173 0.0934842077676
168.70239755710472 0.0784305380105
189.2872033440579 0.0656376070711
212.3837353152414 0.0548218862398
238.29847041728442 0.0457058255449
267.3752814401238 0.0380325835167
300.0 0.0315814575342
336.60553629058904 0.0261702866433
377.67762353825026 0.021630234409
423.7612633868262 0.0178435693638
475.467957738334 0.0146894548881
533.4838230116769 0.0120662119487
598.5786944906639 0.00988866487966
671.616341570502 0.0080855271535
753.5659294528738 0.00659199616026
845.5148793793361 0.00536069857239
948.6832980505137 0.00434771130182
1064.4401677007265 0.00351699199991
1194.321511660492 0.00283733441825
1340.050776452889 0.00228128126695
1503.5617008818167 0.00182676751181
1687.0239755710472 0.0014572051253
1892.87203344058 0.0011573220699
2123.837353152414 0.000915014446955
2382.984704172844 0.000720014572415
2673.7528144012367 0.000563408684056
3000.0 0.00043768342651
3366.055362905891 0.00033745197112
3776.776235382502 0.000257942739869
4237.612633868263 0.000195334982777
4754.67957738334 0.000146430311141
5334.8382301167685 0.000108520497565
5985.786944906639 7.9103758477e-05
6716.163415705018 5.68022150714e-05
7535.65929452874 4.00638060057e-05
8455.148793793362 2.76734970416e-05
9486.832980505138 1.86587858518e-05
10644.401677007265 1.223416551e-05
11943.215116604915 7.73992426416e-06
13400.507764528895 4.72011600898e-06
15035.617008818168 2.76440851484e-06
16870.23975571047 1.561172511e-06
18928.720334405796 8.41665917858e-07
21238.373531524136 4.41648330849e-07
23829.847041728444 2.36394036223e-07
26737.528144012365 1.33191622368e-07
30000.0 9.19690947844e-08
