E(GeV) dN/dE (GeV^-1)
6.294627058970832e-05 0.38636905346
7.062687723113777e-05 0.442738004608
7.924465962305555e-05 0.526120882606
8.891397050194613e-05 0.600785466812
9.976311574844414e-05 0.696521119887
0.00011193605692841689 0.807007631988
0.0001255943215754791 0.912889546153
0.00014091914656322248 1.08481821923
0.00015811388300841897 1.2882114343
0.000177406694616788 1.4859459001
0.00019905358527674846 1.67998356121
0.00022334179607548177 1.90369337605
0.0002505936168136357 2.19925672706
0.00028117066259517455 2.56402582441
0.00031547867224009714 2.93770865016
0.0003539728921920687 3.27340794529
0.0003971641173621411 3.70583326849
0.0004456254690668721 4.23159529991
0.0005 4.78853095747
0.0005610092271509815 5.43362358576
0.0006294627058970831 6.18190485536
0.0007062687723113777 6.99280081723
0.0007924465962305571 7.86715132272
0.0008891397050194614 8.83984990111
0.0009976311574844392 9.93630910089
0.0011193605692841689 11.0959669554
0.001255943215754791 12.3416442393
0.0014091914656322276 13.7442153758
0.0015811388300841897 15.2764297103
0.0017740669461678766 16.9456585002
0.0019905358527674845 18.7896343236
0.0022334179607548174 20.8616792805
0.0025059361681363623 23.0098751498
0.002811706625951745 25.3277869041
0.0031547867224009647 27.8560582507
0.0035397289219206863 30.5778998715
0.003971641173621411 33.4593332642
0.0044562546906687294 36.5239691145
0.005 39.7753812785
0.005610092271509815 43.1814765334
0.0062946270589708305 46.7518973692
0.007062687723113777 50.4697343612
0.00792446596230557 54.3140345116
0.008891397050194613 58.2957280195
0.009976311574844394 62.2608475273
0.011193605692841689 66.3291600249
0.012559432157547911 70.4498647631
0.014091914656322275 74.5889264281
0.015811388300841896 78.7066972442
0.017740669461678765 82.7271126083
0.019905358527674846 86.5020699333
0.022334179607548174 90.1138830101
0.025059361681363624 93.5282362287
0.028117066259517452 96.7026510078
0.03154786722400965 99.5941876448
0.035397289219206866 102.168791663
0.03971641173621411 104.239578659
0.044562546906687296 105.911021903
0.049999999999999996 107.157195081
0.05610092271509815 107.966828332
0.06294627058970831 108.339566055
0.07062687723113777 108.281356158
0.0792446596230557 107.657874714
0.08891397050194615 106.577798331
0.09976311574844393 105.063237017
0.11193605692841688 103.147145064
0.12559432157547912 100.857900875
0.14091914656322277 98.2057981307
0.15811388300841897 95.1378093681
0.17740669461678765 91.8162691327
0.19905358527674846 88.2605981805
0.22334179607548174 84.5165927992
0.25059361681363623 80.6359090724
0.28117066259517454 76.6594294494
0.31547867224009646 72.5347481517
0.3539728921920687 68.3909821609
0.3971641173621411 64.2698016427
0.44562546906687295 60.2008139239
0.5 56.207534911
0.5610092271509816 52.3117624632
0.6294627058970831 48.5095674672
0.7062687723113777 44.854943285
0.792446596230557 41.3638304026
0.8891397050194615 38.0464809868
0.9976311574844393 34.908864955
1.119360569284169 31.9537888277
1.2559432157547912 29.1618007987
1.4091914656322275 26.5535451969
1.5811388300841898 24.1260538778
1.7740669461678766 21.8752668877
1.9905358527674848 19.7947800518
2.2334179607548172 17.8753914552
2.5059361681363628 16.102123979
2.811706625951745 14.4769782052
3.1547867224009645 12.9911156447
3.5397289219206867 11.6359631017
3.971641173621411 10.4032980368
4.45625469066873 9.28527602886
5.0 8.26911433499
5.610092271509815 7.35061527639
6.294627058970837 6.52305624157
7.06268772311377 5.77906581522
7.924465962305571 5.11128569338
8.891397050194614 4.51276388914
9.976311574844393 3.9766671841
11.1936056928417 3.49834820987
12.559432157547898 3.07251922674
14.091914656322276 2.69405839907
15.811388300841896 2.35824160176
17.740669461678767 2.06083973944
19.905358527674867 1.79720578873
22.33417960754815 1.56492425615
25.059361681363626 1.36044024647
28.117066259517454 1.18075789513
31.54786722400965 1.02316167436
35.397289219206904 0.885084762833
39.71641173621406 0.764032793127
44.562546906687295 0.658470309479
50.0 0.566554497364
56.10092271509815 0.486658861915
62.94627058970838 0.417329771636
70.6268772311377 0.35726021373
79.24465962305571 0.305154644224
88.91397050194614 0.260213642294
99.76311574844395 0.221525359949
111.93605692841699 0.188264090696
125.59432157547897 0.159717564354
140.91914656322274 0.135287313377
158.11388300841898 0.114313352951
177.40669461678766 0.0964008430854
199.05358527674866 0.0811426256486
223.3417960754815 0.0681756174845
250.59361681363623 0.057179253792
281.1706625951746 0.0478727300041
315.4786722400965 0.039986881473
353.972892192069 0.0333378256855
397.1641173621407 0.0277404878651
445.62546906687294 0.0230367726518
500.0 0.0190926815837
561.0092271509818 0.0157949012353
629.4627058970838 0.0130327580508
706.268772311377 0.0107323283414
792.4465962305567 0.00881964056859
889.1397050194614 0.007232216374
997.6311574844399 0.00591752284934
1119.36056928417 0.00483145342877
1255.9432157547897 0.00393195704979
1409.1914656322267 0.00319284838575
1581.1388300841895 0.0025865305216
1774.0669461678776 0.00208971019947
1990.5358527674866 0.00168329225611
2233.417960754815 0.00135181888882
2505.936168136361 0.00108105252962
2811.7066259517455 0.000861329488167
3154.7867224009665 0.000683590073051
3539.72892192069 0.000540028144636
3971.641173621407 0.000424336170503
4456.254690668728 0.000331551923929
5000.0 0.000257034843924
5610.092271509818 0.00019785488631
6294.6270589708365 0.000151067402135
7062.687723113772 0.00011426938767
7924.465962305567 8.55454469712e-05
8891.397050194615 6.33643058968e-05
9976.311574844398 4.61482679935e-05
11193.605692841698 3.30418799338e-05
12559.4321575479 2.3224567058e-05
14091.91465632227 1.60065544621e-05
15811.388300841898 1.07932616486e-05
17740.66946167877 7.08788850297e-06
19905.35852767486 4.48064706557e-06
22334.179607548158 2.73122635873e-06
25059.36168136361 1.59953033589e-06
28117.066259517454 9.04699521609e-07
31547.867224009664 4.8970529434e-07
35397.2892192069 2.59222500255e-07
39716.411736214075 1.40688258579e-07
44562.546906687276 8.07531060688e-08
50000.0 5.54941488976e-08
