E(GeV) dN/dE (GeV^-1)
7.5535524707649975e-06 0.0
8.475225267736533e-06 0.0
9.509359154766665e-06 0.0
1.0669676460233537e-05 0.0
1.1971573889813297e-05 0.0
1.3432326831410027e-05 0.0
1.5071318589057493e-05 0.0
1.6910297587586696e-05 0.0
1.897366596101028e-05 0.0
2.128880335401456e-05 0.0408002718313
2.3886430233209815e-05 0.0545449208186
2.680101552905781e-05 0.04861321185
3.0071234017636287e-05 0.043326570667
3.3740479511420946e-05 0.0514864623375
3.7857440668811656e-05 0.0573591973243
4.247674706304824e-05 0.0715700137963
4.7659694083456934e-05 0.0820116539205
5.347505628802465e-05 0.0893358442711
6e-05 0.123050103206
6.732110725811778e-05 0.135472877548
7.553552470764997e-05 0.166736645094
8.475225267736532e-05 0.20497129843
9.509359154766685e-05 0.251186185272
0.00010669676460233537 0.317488254819
0.00011971573889813272 0.377282273272
0.00013432326831410026 0.446182104224
0.00015071318589057492 0.492752880026
0.0001691029758758673 0.570145939083
0.00018973665961010276 0.652345875577
0.0002128880335401452 0.746644974512
0.00023886430233209814 0.883627717262
0.0002680101552905781 1.06787022031
0.0003007123401763635 1.25213789228
0.0003374047951142094 1.44805675324
0.00037857440668811576 1.68980195317
0.0004247674706304824 1.98351181093
0.0004765969408345693 2.30908367816
0.0005347505628802476 2.63946812619
0.0006 3.06829051465
0.0006732110725811778 3.54358341129
0.0007553552470764996 4.05285038369
0.0008475225267736533 4.61339149941
0.0009509359154766684 5.25161808081
0.0010669676460233536 5.96104550234
0.0011971573889813273 6.75734317715
0.0013432326831410027 7.69308477385
0.0015071318589057494 8.70097848677
0.001691029758758673 9.78262566019
0.0018973665961010274 10.9729154138
0.002128880335401452 12.2610936894
0.0023886430233209816 13.7762288348
0.002680101552905781 15.4405283478
0.003007123401763635 17.2241893249
0.003374047951142094 19.1454984525
0.003785744066881158 21.2388488669
0.004247674706304824 23.4922435714
0.004765969408345693 25.8816022405
0.005347505628802475 28.4524106131
0.006 31.1855286269
0.006732110725811778 34.072847943
0.007553552470764996 37.1094826861
0.008475225267736532 40.2794735255
0.009509359154766684 43.5197420666
0.010669676460233538 46.884263958
0.011971573889813273 50.3143276864
0.013432326831410026 53.7800749521
0.015071318589057494 57.2539080568
0.01691029758758673 60.6696659761
0.018973665961010275 63.9469941353
0.021288803354014518 67.1278304383
0.023886430233209816 70.1708042816
0.02680101552905781 73.031336483
0.03007123401763635 75.660901512
0.033740479511420944 78.0062766893
0.037857440668811575 79.940721754
0.04247674706304824 81.5680073221
0.04765969408345693 82.841675645
0.05347505628802476 83.7361436091
0.060000000000000005 84.2416785914
0.06732110725811778 84.3580964031
0.07553552470764997 83.9561497147
0.08475225267736533 83.1766457518
0.09509359154766685 82.0138742478
0.10669676460233538 80.4775130341
0.11971573889813272 78.5979970788
0.13432326831410027 76.4301570538
0.15071318589057492 73.9042151766
0.16910297587586728 71.1227601466
0.18973665961010278 68.1452449858
0.2128880335401452 65.0073036303
0.23886430233209816 61.7402358664
0.2680101552905781 58.3861591716
0.3007123401763635 54.9264266487
0.33740479511420945 51.4618736902
0.37857440668811576 48.0257408569
0.42476747063048237 44.6466771804
0.4765969408345693 41.3489819451
0.5347505628802476 38.1529002196
0.6 35.0503810893
0.6732110725811778 32.097722415
0.7553552470765005 29.3007795555
0.8475225267736525 26.6663088397
0.9509359154766686 24.198765126
1.0669676460233537 21.8985199585
1.1971573889813272 19.7518494206
1.343232683141004 17.7701082444
1.5071318589057476 15.9480622259
1.691029758758673 14.277371171
1.8973665961010275 12.749710104
2.128880335401452 11.3584029752
2.3886430233209843 10.0920941571
2.680101552905778 8.94675525337
3.0071234017636352 7.91386747918
3.3740479511420944 6.98489984342
3.7857440668811577 6.15159850861
4.247674706304828 5.40614712021
4.765969408345688 4.73888559492
5.347505628802476 4.14550145343
6.0 3.61868233463
6.732110725811778 3.15201570255
7.553552470765005 2.73973634611
8.475225267736525 2.37656482863
9.509359154766685 2.05632817014
10.669676460233536 1.77584377035
11.971573889813273 1.53055611426
13.43232683141004 1.31647216437
15.071318589057476 1.13000960517
16.91029758758673 0.967913056065
18.973665961010276 0.827042887922
21.28880335401452 0.705102810938
23.88643023320984 0.59992602058
26.801015529057782 0.509410068862
30.071234017636346 0.431643328789
33.74047951142094 0.364952597946
37.857440668811584 0.307814449981
42.47674706304828 0.259056468047
47.659694083456884 0.217539310952
53.47505628802475 0.182289879571
60.0 0.152439686624
67.32110725811782 0.127199600525
75.53552470765005 0.105859664335
84.75225267736523 0.087876658122
95.0935915476668 0.0727861980712
106.69676460233538 0.0601481905791
119.7157388981328 0.0495857049239
134.3232683141004 0.0407920307521
150.71318589057478 0.033452828774
169.1029758758672 0.0273550525571
189.73665961010275 0.022306605564
212.8880335401453 0.0181364470738
238.86430233209842 0.0147000234317
268.0101552905778 0.0118782477894
300.71234017636334 0.00955970886434
337.4047951142095 0.00766253325397
378.57440668811597 0.00611529805227
424.7674706304828 0.0048588054199
476.59694083456884 0.00384160356155
534.7505628802473 0.00301866954794
600.0 0.00235381384304
673.2110725811782 0.00182197989101
755.3552470765004 0.00139951322986
847.5225267736527 0.00106525172322
950.935915476668 0.000802336172783
1066.9676460233538 0.000597803112398
1197.1573889813278 0.000438036327954
1343.2326831410037 0.000316141359987
1507.131858905748 0.000224072888601
1691.0297587586722 0.000155605924723
1897.3665961010277 0.000105583667769
2128.8803354014526 6.97046124061e-05
2388.643023320983 4.42901120719e-05
2680.101552905779 2.70882539071e-05
3007.1234017636334 1.58530477852e-05
3374.0479511420945 8.90381136433e-06
3785.7440668811596 4.73006884815e-06
4247.674706304828 2.40741077835e-06
4765.969408345689 1.20866953067e-06
5347.505628802473 6.33147492671e-07
6000.0 4.12507375394e-07
