E(GeV) dN/dE (GeV^-1)
8.812477882559164e-06 0.0
9.887762812359289e-06 0.0
1.1094252347227777e-05 0.0
1.244795587027246e-05 0.0
1.396683620478218e-05 0.0
1.5671047969978365e-05 0.0
1.7583205020567073e-05 0.0
1.9728680518851145e-05 0.0
2.2135943621178656e-05 0.0196194248294
2.483693724635032e-05 0.0349716615697
2.7867501938744782e-05 0.0467527892731
3.1267851450567445e-05 0.0694474455
3.5083106353909006e-05 0.086653141334
3.936389276332444e-05 0.11032813358
4.41670141136136e-05 0.127829068323
4.955620490688962e-05 0.131455127381
5.560297643069975e-05 0.132780773014
6.238756566936208e-05 0.153147161608
7.000000000000001e-05 0.18612620653
7.854129180113742e-05 0.243298229066
8.812477882559162e-05 0.261193365222
9.887762812359287e-05 0.316241431863
0.000110942523472278 0.367971450632
0.00012447955870272459 0.429132476294
0.0001396683620478215 0.51928137063
0.00015671047969978365 0.615232466694
0.00017583205020567074 0.686643111014
0.00019728680518851186 0.790279506297
0.00022135943621178655 0.906417427118
0.0002483693724635027 1.03690976554
0.00027867501938744785 1.18440399492
0.00031267851450567444 1.33616885142
0.0003508310635390907 1.63650646919
0.00039363892763324434 1.93625874433
0.0004416701411361351 2.25372480458
0.0004955620490688961 2.60105878711
0.0005560297643069976 2.97975675911
0.0006238756566936221 3.38664064191
0.0007 3.89065813716
0.0007854129180113741 4.44848693826
0.0008812477882559163 5.06616564996
0.0009887762812359289 5.74593112727
0.0011094252347227799 6.50683133235
0.001244795587027246 7.42643405723
0.0013966836204782152 8.39432328235
0.0015671047969978364 9.43190169886
0.0017583205020567077 10.5668940919
0.0019728680518851186 11.8385631112
0.0022135943621178654 13.2792115015
0.0024836937246350273 14.8846385973
0.0027867501938744783 16.637759276
0.0031267851450567444 18.5098276491
0.0035083106353909076 20.5358041746
0.003936389276332443 22.7231823922
0.004416701411361351 25.0691485691
0.004955620490688962 27.5974265321
0.005560297643069975 30.2847949217
0.006238756566936222 33.1301166335
0.006999999999999999 36.1177283351
0.007854129180113741 39.245829085
0.008812477882559162 42.5085795269
0.009887762812359287 45.8666470617
0.0110942523472278 49.3237153066
0.01244795587027246 52.7952265603
0.013966836204782151 56.2709151508
0.015671047969978362 59.7305368584
0.017583205020567077 63.148245177
0.019728680518851186 66.4992467719
0.022135943621178655 69.6658504691
0.02483693724635027 72.6611982757
0.027867501938744783 75.4502746994
0.031267851450567444 77.9978705479
0.03508310635390907 80.2627940152
0.039363892763324436 82.1913592968
0.044167014113613505 83.6948435257
0.04955620490688961 84.835355186
0.05560297643069975 85.6028114649
0.06238756566936222 85.9663816358
0.07 85.9074316213
0.0785412918011374 85.4531780458
0.08812477882559162 84.5049292955
0.09887762812359288 83.1675391699
0.11094252347227798 81.4717133331
0.1244795587027246 79.4560794703
0.13966836204782151 77.1530723075
0.15671047969978366 74.5771078105
0.17583205020567075 71.6743964239
0.19728680518851185 68.5797159077
0.22135943621178655 65.330634452
0.24836937246350274 61.9724928566
0.2786750193874479 58.5436463661
0.3126785145056744 55.0649434286
0.35083106353909077 51.5459429771
0.3936389276332444 48.0634076901
0.44167014113613506 44.6495745691
0.4955620490688961 41.3285683572
0.5560297643069976 38.1191299964
0.6238756566936221 35.0366317259
0.7000000000000001 32.0748791418
0.7854129180113741 29.2724170299
0.8812477882559172 26.6392483223
0.9887762812359279 24.1750626428
1.10942523472278 21.8771338786
1.2447955870272458 19.7449828798
1.3966836204782151 17.7650252064
1.567104796997838 15.9463253139
1.7583205020567056 14.2794229738
1.9728680518851185 12.7559182413
2.2135943621178655 11.3683725192
2.4836937246350272 10.1101102945
2.7867501938744814 8.96570946455
3.126785145056741 7.93460093611
3.5083106353909077 7.00694359117
3.9363892763324437 6.17432003896
4.416701411361351 5.42915540316
4.9556204906889665 4.76436157127
5.560297643069969 4.1703782064
6.238756566936222 3.64301372408
7.0 3.17570717462
7.854129180113741 2.76277718728
8.812477882559172 2.398834462
9.887762812359277 2.07854086511
11.0942523472278 1.79643157217
12.447955870272459 1.54956806529
13.966836204782153 1.3340739844
15.67104796997838 1.14630135365
17.583205020567057 0.98293309603
19.728680518851185 0.841018488444
22.135943621178654 0.717798454564
24.836937246350274 0.611418179737
27.867501938744812 0.519717236599
31.267851450567413 0.440886677183
35.08310635390907 0.373290307031
39.363892763324436 0.315393237117
44.16701411361351 0.265768668641
49.55620490688966 0.223462648026
55.6029764306997 0.187506321748
62.38756566936221 0.157018784504
70.0 0.131216928215
78.54129180113745 0.109415609567
88.12477882559172 0.0909723973498
98.87762812359279 0.0754590005397
110.94252347227794 0.0624645199367
124.4795587027246 0.0515954349565
139.6683620478216 0.042515132986
156.7104796997838 0.0349520769754
175.83205020567055 0.0286414155227
197.28680518851175 0.023401281252
221.35943621178654 0.019071554353
248.36937246350286 0.0155004440944
278.6750193874481 0.0125592173667
312.6785145056741 0.0101445911594
350.83106353909056 0.00815733361247
393.6389276332444 0.0065351115709
441.6701411361353 0.00521273666063
495.5620490688966 0.00413810575132
556.029764306997 0.00326823236125
623.8756566936219 0.0025670151322
700.0 0.00200176997945
785.4129180113745 0.00155027917414
881.247788255917 0.00119050358851
988.7762812359282 0.000905812090182
1109.4252347227794 0.000682239816799
1244.795587027246 0.000507659532798
1396.6836204782157 0.000371592462725
1567.1047969978376 0.000267868336154
1758.3205020567061 0.000189698003102
1972.8680518851177 0.000131607953826
2213.594362117866 8.92048160373e-05
2483.6937246350285 5.8933544644e-05
2786.7501938744804 3.74299714068e-05
3126.785145056742 2.28612656893e-05
3508.3106353909056 1.33685990646e-05
3936.3892763324434 7.51135999041e-06
4416.701411361353 3.99043019283e-06
4955.620490688965 2.02808970523e-06
5560.29764306997 1.03319062672e-06
6238.756566936219 5.53557376865e-07
7000.0 3.69646646169e-07
