E(GeV) dN/dE (GeV^-1)
1.1330328706147496e-05 0.0383302632401
1.2712837901604799e-05 0.0341618830716
1.4264038732149999e-05 0.030446810336
1.6004514690350304e-05 0.0271357482751
1.7957360834719944e-05 0.0241847611072
2.014849024711504e-05 0.0431093820506
2.2606977883586237e-05 0.0576319157925
2.5365446381380046e-05 0.0684859986887
2.8460498941515414e-05 0.0305191052902
3.1933205031021845e-05 0.0272001812209
3.5829645349814724e-05 0.048484374061
4.0201523293586716e-05 0.0972264237
4.510685102645443e-05 0.125165648594
5.061071926713142e-05 0.120135078787
5.678616100321749e-05 0.137662073578
6.371512059457237e-05 0.149956219383
7.14895411251854e-05 0.188323057151
8.021258443203697e-05 0.238228918056
9e-05 0.289529654602
0.00010098166088717668 0.356960280523
0.00011330328706147496 0.406300790345
0.000127128379016048 0.485098739617
0.0001426403873215003 0.575444715351
0.00016004514690350305 0.672966557224
0.00017957360834719907 0.783586259873
0.0002014849024711504 0.909607961269
0.0002260697788358624 1.07579576146
0.00025365446381380097 1.23959657627
0.0002846049894151541 1.41303457493
0.00031933205031021777 1.62249080982
0.0003582964534981472 1.88361793227
0.00040201523293586713 2.16058719333
0.00045106851026454524 2.51871797478
0.0005061071926713141 2.88066756778
0.0005678616100321737 3.28477003344
0.0006371512059457236 3.74549738867
0.000714895411251854 4.27614838479
0.0008021258443203713 4.92646573953
0.0009 5.62797393604
0.0010098166088717668 6.35905386484
0.0011330328706147495 7.18654105488
0.00127128379016048 8.11686341782
0.0014264038732150026 9.13465203701
0.0016004514690350303 10.2868908136
0.0017957360834719909 11.571682647
0.002014849024711504 12.9595424321
0.002260697788358624 14.4809793748
0.0025365446381380094 16.1517379307
0.0028460498941515412 17.9762108025
0.003193320503102178 19.9575889672
0.0035829645349814724 22.0584508228
0.004020152329358671 24.3275636208
0.004510685102645452 26.7918033627
0.0050610719267131414 29.4418470015
0.005678616100321737 32.250323414
0.006371512059457236 35.2054942721
0.0071489541125185395 38.3202186665
0.008021258443203713 41.5989380987
0.009 44.9804102951
0.010098166088717667 48.4332740139
0.011330328706147495 51.9516122272
0.012712837901604799 55.5421659158
0.014264038732150026 59.0793865845
0.016004514690350306 62.6173130183
0.01795736083471991 66.1038689476
0.02014849024711504 69.4845426222
0.02260697788358624 72.7114218234
0.025365446381380097 75.7539725705
0.02846049894151541 78.5332724283
0.031933205031021775 81.0477407795
0.03582964534981472 83.2607610437
0.04020152329358671 85.1307652039
0.04510685102645452 86.6365424434
0.05061071926713142 87.8050986811
0.056786161003217366 88.4444483702
0.06371512059457236 88.6847761297
0.0714895411251854 88.5326860458
0.08021258443203713 87.9759957068
0.09000000000000001 87.009500056
0.10098166088717667 85.6598531331
0.11330328706147495 83.8450973595
0.12712837901604798 81.7163721466
0.14264038732150028 79.2739551293
0.16004514690350305 76.5535359437
0.17957360834719907 73.601836575
0.20148490247115042 70.4556827599
0.2260697788358624 67.0983440953
0.2536544638138009 63.6411142292
0.28460498941515416 60.1116093429
0.31933205031021783 56.5494256398
0.35829645349814726 52.9916438964
0.40201523293586716 49.462576486
0.45106851026454525 45.9549106425
0.5061071926713142 42.5464637131
0.5678616100321736 39.2582728274
0.6371512059457236 36.1052970239
0.714895411251854 33.0998409505
0.8021258443203713 30.2536794954
0.9 27.5517760807
1.0098166088717666 25.0212977314
1.1330328706147508 22.6663995498
1.2712837901604788 20.4825164143
1.4264038732150028 18.4623161477
1.6004514690350304 16.5993163063
1.7957360834719909 14.8809459059
2.014849024711506 13.310360979
2.2606977883586215 11.8797363448
2.5365446381380097 10.580000267
2.8460498941515415 9.40188419374
3.193320503102178 8.3365411101
3.582964534981476 7.37314409556
4.020152329358668 6.50764260582
4.510685102645453 5.73201604651
5.061071926713142 5.03881831567
5.678616100321737 4.42079249196
6.371512059457242 3.87073427956
7.148954112518532 3.3806464903
8.021258443203713 2.9468304807
9.0 2.56353088447
10.098166088717667 2.22569353886
11.330328706147508 1.92870003922
12.712837901604786 1.66823246281
14.264038732150027 1.43950454975
16.004514690350305 1.23952700725
17.95736083471991 1.06527935318
20.14849024711506 0.913712448643
22.606977883586215 0.782123363171
25.365446381380092 0.668283104998
28.460498941515414 0.569532298632
31.933205031021778 0.484421722653
35.82964534981476 0.411158764654
40.201523293586675 0.348253728217
45.10685102645452 0.294396470347
50.610719267131415 0.248396549101
56.78616100321737 0.209045456986
63.715120594572426 0.175587949682
71.48954112518533 0.147171006449
80.21258443203713 0.123081555257
90.0 0.102709829462
100.98166088717672 0.0855265349194
113.30328706147507 0.0710297686469
127.12837901604786 0.0588647028367
142.6403873215002 0.0486780498077
160.04514690350305 0.0401642315764
179.57360834719918 0.0330614971284
201.4849024711506 0.0271471181204
226.06977883586214 0.0222266128041
253.65446381380082 0.0181492827517
284.60498941515414 0.0147789545605
319.33205031021794 0.0120007485148
358.2964534981476 0.00971631098565
402.0152329358667 0.00784119331941
451.06851026454495 0.00630014648789
506.1071926713142 0.00504257296593
567.861610032174 0.00401939145246
637.1512059457242 0.00318923751935
714.8954112518533 0.00251753300268
802.1258443203709 0.00197557502593
900.0 0.00153963087918
1009.8166088717672 0.00119099668575
1133.0328706147507 0.000913562344156
1271.2837901604792 0.000694406889103
1426.403873215002 0.000522597577714
1600.4514690350306 0.000388784177122
1795.7360834719918 0.000284364421098
2014.8490247115055 0.00020483099561
2260.697788358622 0.000144964247282
2536.5446381380084 0.00010056227225
2846.0498941515416 6.81725092285e-05
3193.3205031021794 4.4972099626e-05
3582.964534981475 2.85349935099e-05
4020.1523293586683 1.73961838458e-05
4510.685102645451 1.01725973863e-05
5061.071926713142 5.72675339503e-06
5678.616100321739 3.04386140468e-06
6371.512059457241 1.55934019583e-06
7148.954112518533 7.87068880144e-07
8021.25844320371 4.21069612664e-07
9000.0 2.80940274849e-07
