E(GeV) dN/dE (GeV^-1)
1.5107104941529995e-05 3.79469606077
1.6950450535473067e-05 3.61261913483
1.901871830953333e-05 3.44810127055
2.1339352920467075e-05 3.27664160422
2.3943147779626594e-05 3.13797275366
2.6864653662820054e-05 3.0230454163
3.0142637178114986e-05 2.92481972647
3.382059517517339e-05 2.7993651964
3.794733192202056e-05 2.71238548266
4.257760670802912e-05 2.63161753312
4.777286046641963e-05 2.52724799793
5.360203105811562e-05 2.4306605925
6.0142468035272574e-05 2.34685591113
6.748095902284189e-05 2.2203536883
7.571488133762331e-05 2.12802622073
8.495349412609648e-05 2.04485753704
9.531938816691387e-05 1.95461108511
0.0001069501125760493 1.89229561047
0.00012 1.89280011696
0.00013464221451623556 1.90629691978
0.00015107104941529994 1.9318452673
0.00016950450535473065 1.95491375877
0.0001901871830953337 2.02775756838
0.00021339352920467073 2.12472908994
0.00023943147779626543 2.21109178422
0.0002686465366282005 2.33598963987
0.00030142637178114985 2.52427791171
0.0003382059517517346 2.75955770966
0.0003794733192202055 2.99049082962
0.0004257760670802904 3.25484168534
0.0004777286046641963 3.60269202007
0.0005360203105811562 3.96845852736
0.000601424680352727 4.39475848466
0.0006748095902284188 4.89636256829
0.0007571488133762315 5.49558469564
0.0008495349412609648 6.17495854746
0.0009531938816691386 6.90447001951
0.0010695011257604952 7.71293193675
0.0012 8.65874623295
0.0013464221451623556 9.71340532018
0.0015107104941529993 10.8677795365
0.0016950450535473066 12.127895514
0.0019018718309533368 13.5199822467
0.002133935292046707 15.0924961544
0.0023943147779626546 16.7734619897
0.0026864653662820055 18.5831613206
0.0030142637178114987 20.5619149164
0.003382059517517346 22.7114552964
0.003794733192202055 25.0173498817
0.004257760670802904 27.4940791789
0.004777286046641963 30.1935227355
0.005360203105811562 33.0477475478
0.00601424680352727 36.0588272814
0.006748095902284188 39.2214216375
0.007571488133762316 42.5285179825
0.008495349412609649 45.983018164
0.009531938816691387 49.4854219174
0.01069501125760495 53.0706486117
0.012 56.7089429459
0.013464221451623556 60.4025177816
0.015107104941529993 64.1287248082
0.016950450535473064 67.7598473989
0.019018718309533368 71.2511079526
0.021339352920467076 74.6264690713
0.023943147779626545 77.8428557257
0.02686465366282005 80.8384815084
0.030142637178114988 83.5671135619
0.03382059517517346 86.0397734238
0.03794733192202055 88.101278979
0.042577606708029035 89.7994908879
0.04777286046641963 91.1364264039
0.05360203105811562 92.0801399694
0.0601424680352727 92.6002764035
0.06748095902284189 92.7065562639
0.07571488133762315 92.2880117039
0.08495349412609648 91.4495462112
0.09531938816691386 90.2042946567
0.10695011257604951 88.5900077323
0.12000000000000001 86.6384665972
0.13464221451623556 84.3481875298
0.15107104941529995 81.6670481871
0.16950450535473066 78.7160757283
0.1901871830953337 75.5424595151
0.21339352920467075 72.1945436375
0.23943147779626545 68.716490042
0.26864653662820054 65.1442636328
0.30142637178114984 61.4477062067
0.33820595175173457 57.7350850201
0.37947331922020555 54.0465582303
0.4257760670802904 50.4112889246
0.4777286046641963 46.8536588056
0.5360203105811562 43.3975943362
0.601424680352727 40.0331656655
0.6748095902284189 36.8138116857
0.7571488133762315 33.7507637283
0.8495349412609647 30.8538426606
0.9531938816691387 28.1287261141
1.0695011257604952 25.5755921733
1.2 23.1773305559
1.3464221451623557 20.9529619568
1.510710494153001 18.8989225756
1.695045053547305 17.0077081946
1.9018718309533371 15.2712842996
2.1339352920467074 13.6829824215
2.3943147779626544 12.2256787945
2.686465366282008 10.8995619579
3.0142637178114953 9.69734411688
3.382059517517346 8.61061132425
3.794733192202055 7.63053434082
4.257760670802904 6.74834649877
4.777286046641969 5.95296384063
5.360203105811556 5.24151142216
6.0142468035272705 4.60612102173
6.748095902284189 4.03999879496
7.571488133762315 3.53683326707
8.495349412609656 3.09050796335
9.531938816691376 2.69417067488
10.695011257604952 2.34393597612
12.0 2.03550211786
13.464221451623557 1.7644512368
15.10710494153001 1.5266311495
16.95045053547305 1.31833406416
19.01871830953337 1.13569467598
21.33935292046707 0.976525245517
23.943147779626546 0.838137685151
26.86465366282008 0.718006297381
30.142637178114953 0.613900613238
33.82059517517346 0.523918891576
37.94733192202055 0.445990071548
42.57760670802904 0.37891998875
47.77286046641968 0.321297801527
53.602031058115564 0.271912077773
60.14246803527269 0.229675609767
67.48095902284189 0.193593693556
75.71488133762317 0.162744344293
84.95349412609656 0.136530316996
95.31938816691377 0.114288807418
106.9501125760495 0.0954533720329
120.0 0.0795407593074
134.64221451623564 0.0661380200961
151.0710494153001 0.0548328291205
169.50450535473047 0.0453457362981
190.1871830953336 0.0374156848464
213.39352920467076 0.0308000505008
239.4314777962656 0.0252892597991
268.6465366282008 0.0207092723951
301.42637178114956 0.0168999181511
338.2059517517344 0.0137522500676
379.4733192202055 0.0111540306626
425.7760670802906 0.00901590738837
477.72860466419684 0.00726222893845
536.0203105811556 0.00582708340492
601.4246803527267 0.00465270611156
674.809590228419 0.00369645704832
757.1488133762319 0.00292146681985
849.5349412609656 0.00229686475747
953.1938816691377 0.00179581647582
1069.5011257604947 0.00139494063145
1200.0 0.00107379238268
1346.4221451623564 0.000819699934199
1510.7104941530008 0.00062024048384
1695.0450535473053 0.000464757046342
1901.871830953336 0.000344437458097
2133.9352920467077 0.000252125563876
2394.3147779626556 0.000181469508501
2686.4653662820074 0.000128461485913
3014.263717811496 8.93144851803e-05
3382.0595175173444 6.08546038548e-05
3794.7331922020553 4.05635532233e-05
4257.760670802905 2.64516322337e-05
4777.286046641966 1.67271999592e-05
5360.203105811558 1.02987089304e-05
6014.246803527267 6.18176289182e-06
6748.095902284189 3.6437612977e-06
7571.488133762319 2.12406843612e-06
8495.349412609656 1.24419356841e-06
9531.938816691378 7.48994210444e-07
10695.011257604947 4.65114891037e-07
12000.0 3.28905687628e-07
