E(GeV) dN/dE (GeV^-1)
2.5178508235883326e-05 3.43247507315
2.825075089245511e-05 3.25904364503
3.169786384922222e-05 3.09644061117
3.556558820077846e-05 2.94287190044
3.9905246299377654e-05 2.80785076454
4.477442277136675e-05 2.68679223631
5.023772863019164e-05 2.57614663592
5.636765862528899e-05 2.46549595279
6.324555320336759e-05 2.39651274291
7.09626778467152e-05 2.33173553516
7.962143411069938e-05 2.26906870605
8.93367184301927e-05 2.20703981799
0.0001002374467254543 2.16199587628
0.00011246826503806981 2.11995508675
0.00012619146889603886 2.11311282943
0.00014158915687682746 2.15936955911
0.00015886564694485644 2.23071698664
0.00017825018762674882 2.30486478219
0.0002 2.3734193436
0.0002244036908603926 2.46560637137
0.0002517850823588332 2.60454138716
0.0002825075089245511 2.80093279304
0.00031697863849222284 3.02108475559
0.00035565588200778454 3.27379235066
0.00039905246299377575 3.58599545317
0.00044774422771366756 3.94677170019
0.0005023772863019165 4.37858480234
0.000563676586252891 4.84547001472
0.0006324555320336759 5.36846321607
0.0007096267784671506 5.98845989804
0.0007962143411069938 6.73084322902
0.000893367184301927 7.52970038345
0.001002374467254545 8.37979203271
0.0011246826503806982 9.35521892287
0.001261914688960386 10.4526812468
0.0014158915687682745 11.6737849503
0.0015886564694485644 13.0147027328
0.0017825018762674919 14.448286094
0.002 15.9991915661
0.002244036908603926 17.732819073
0.0025178508235883324 19.6039173085
0.002825075089245511 21.6365140481
0.003169786384922228 23.8732830908
0.0035565588200778455 26.2828988426
0.003990524629937758 28.8423954174
0.0044774422771366755 31.5757255393
0.005023772863019165 34.4839703666
0.00563676586252891 37.5683798144
0.006324555320336759 40.827100957
0.0070962677846715064 44.2504040177
0.007962143411069938 47.7508054814
0.00893367184301927 51.3906304826
0.01002374467254545 55.1273420665
0.01124682650380698 58.9375316805
0.012619146889603859 62.7934879817
0.014158915687682747 66.6280225493
0.015886564694485645 70.4239266287
0.017825018762674918 74.1369990208
0.02 77.7276160367
0.02244036908603926 81.1771480806
0.025178508235883322 84.4552384898
0.028250750892455108 87.4782964035
0.03169786384922228 90.1254936671
0.03556558820077846 92.4750970473
0.03990524629937758 94.4730991879
0.04477442277136675 96.0960827128
0.050237728630191644 97.3271397624
0.0563676586252891 98.1285341104
0.06324555320336758 98.3810299768
0.07096267784671506 98.2075966268
0.07962143411069939 97.613944839
0.0893367184301927 96.608724785
0.1002374467254545 95.201911325
0.11246826503806982 93.4034139472
0.1261914688960386 91.1371074399
0.14158915687682747 88.5517642815
0.15886564694485644 85.677867359
0.17825018762674918 82.5554274898
0.2 79.2240688759
0.2244036908603926 75.7149745536
0.25178508235883323 71.9960508184
0.2825075089245511 68.1903276075
0.3169786384922228 64.3422972351
0.3556558820077846 60.4912472214
0.3990524629937757 56.6702240235
0.44774422771366756 52.9055716073
0.5023772863019165 49.1788260072
0.563676586252891 45.5663793432
0.6324555320336759 42.0939133865
0.7096267784671507 38.7709362829
0.7962143411069939 35.6039494304
0.893367184301927 32.6047159029
1.002374467254545 29.7616968524
1.1246826503806981 27.1001705276
1.2619146889603858 24.6161314465
1.4158915687682747 22.3067298483
1.5886564694485643 20.1679390667
1.7825018762674918 18.1933161545
2.0 16.3689928831
2.2440369086039262 14.6951746055
2.517850823588335 13.165433389
2.8250750892455083 11.7712124543
3.1697863849222285 10.5037929729
3.5565588200778455 9.35536608199
3.9905246299377577 8.31268256489
4.47744227713668 7.37171364229
5.023772863019159 6.52488157549
5.63676586252891 5.76462262346
6.324555320336759 5.08359317971
7.0962677846715065 4.4748003113
7.962143411069947 3.93051943043
8.93367184301926 3.44595019572
10.023744672545451 3.01555687412
11.246826503806982 2.63421440953
12.61914688960386 2.29709798427
14.15891568768276 1.99964010331
15.886564694485626 1.73668512566
17.82501876267492 1.50557037265
20.0 1.30291167485
22.44036908603926 1.12555995283
25.17850823588335 0.970648289395
28.25075089245508 0.835603571468
31.69786384922228 0.717755742033
35.56558820077846 0.615381610783
39.90524629937758 0.526660024639
44.7744227713668 0.449902244514
50.23772863019159 0.383602178131
56.367658625289096 0.326447358572
63.245553203367585 0.277203228145
70.96267784671507 0.234929295293
79.62143411069947 0.198738597144
89.3367184301926 0.167808563373
100.23744672545449 0.141416141602
112.46826503806982 0.118944791153
126.1914688960386 0.099780685339
141.58915687682762 0.0835316073328
158.86564694485628 0.069772926321
178.25018762674918 0.0581528031756
200.0 0.0483622409173
224.40369086039271 0.040122520247
251.7850823588335 0.0331834268967
282.5075089245508 0.0273907045671
316.9786384922227 0.0225575342296
355.6558820077846 0.0185315061366
399.052462993776 0.0151854380945
447.74422771366795 0.0124115746581
502.3772863019159 0.0101084380473
563.6765862528907 0.00820966852007
632.4555320336758 0.00664518031603
709.626778467151 0.00535972118107
796.2143411069947 0.00430719312646
893.367184301926 0.00344796059509
1002.3744672545444 0.00274597219249
1124.6826503806983 0.00217745297971
1261.9146889603867 0.00171973347368
1415.891568768276 0.00134974706961
1588.6564694485628 0.00105120077646
1782.501876267491 0.000814579415157
2000.0 0.000625460924064
2244.0369086039273 0.000476424629182
2517.8508235883346 0.000359536240156
2825.075089245509 0.00026861375925
3169.7863849222267 0.000198557473053
3556.5588200778457 0.000145076990705
3990.5246299377595 0.000104169304399
4477.442277136679 7.36095716171e-05
5023.7728630191605 5.11231977506e-05
5636.765862528908 3.48195059206e-05
6324.555320336759 2.32033247824e-05
7096.26778467151 1.51057906421e-05
7962.143411069944 9.56090644569e-06
8933.671843019263 5.9082553154e-06
10023.744672545445 3.57808151197e-06
11246.826503806982 2.13088308838e-06
12619.146889603864 1.25585668174e-06
14158.915687682758 7.44645096399e-07
15886.564694485629 4.56586214593e-07
17825.01876267491 2.85184379235e-07
20000.0 2.02316084395e-07
