E(GeV) dN/dE (GeV^-1)
3.1473135294854157e-06 2.75977895329
3.5313438615568887e-06 2.82860391833
3.962232981152778e-06 2.95942996466
4.445698525097307e-06 3.02834950751
4.988155787422207e-06 3.04727989951
5.596802846420844e-06 3.10387550765
6.279716078773955e-06 3.1121234528
7.045957328161124e-06 3.14350733981
7.905694150420949e-06 3.07632581325
8.8703347308394e-06 3.08450055044
9.952679263837422e-06 3.05451556584
1.1167089803774087e-05 2.99457384996
1.2529680840681787e-05 2.98086806189
1.4058533129758727e-05 2.93472835324
1.5773933612004857e-05 2.86337113043
1.7698644609603433e-05 2.72375023933
1.9858205868107055e-05 2.60250315108
2.2281273453343603e-05 2.47541503035
2.5e-05 2.37993376083
2.8050461357549075e-05 2.29142695738
3.147313529485415e-05 2.19402426786
3.5313438615568886e-05 2.09070724398
3.9622329811527855e-05 1.98391416149
4.445698525097307e-05 1.88539179016
4.988155787422197e-05 1.77612885571
5.5968028464208445e-05 1.66833308536
6.279716078773956e-05 1.58372504598
7.045957328161138e-05 1.5039525312
7.905694150420948e-05 1.42280068863
8.870334730839383e-05 1.34151293781
9.952679263837423e-05 1.26980575666
0.00011167089803774087 1.21727482472
0.00012529680840681813 1.14728759126
0.00014058533129758727 1.12446433745
0.00015773933612004825 1.10680307157
0.00017698644609603431 1.09440775382
0.00019858205868107055 1.10442360613
0.00022281273453343648 1.13245364774
0.00025 1.1830181687
0.00028050461357549076 1.25409178073
0.00031473135294854155 1.3412525713
0.00035313438615568887 1.45488627625
0.0003962232981152785 1.60576477712
0.0004445698525097307 1.80821772206
0.0004988155787422197 2.04690144107
0.0005596802846420844 2.30850740881
0.0006279716078773956 2.59896887458
0.0007045957328161137 2.93640567978
0.0007905694150420948 3.3350667879
0.0008870334730839383 3.78022678571
0.0009952679263837423 4.34264841589
0.0011167089803774087 4.96204775996
0.0012529680840681812 5.64909158985
0.0014058533129758725 6.40821104837
0.0015773933612004824 7.24460428414
0.0017698644609603434 8.18057526837
0.0019858205868107056 9.2272952059
0.0022281273453343647 10.3678957712
0.0025 11.6521209495
0.0028050461357549076 13.0860606665
0.0031473135294854153 14.6656033467
0.0035313438615568885 16.4477168712
0.003962232981152785 18.3213924771
0.004445698525097307 20.3319478386
0.004988155787422197 22.5062516212
0.005596802846420844 24.8728287836
0.0062797160787739555 27.4316392789
0.007045957328161137 30.1059861674
0.007905694150420948 32.8722442806
0.008870334730839383 35.8426308011
0.009952679263837423 38.8976848373
0.011167089803774087 42.0037206763
0.012529680840681812 45.1743969141
0.014058533129758728 48.3998798122
0.015773933612004826 51.5803545574
0.017698644609603433 54.7142531185
0.019858205868107055 57.7668220442
0.022281273453343648 60.7133154705
0.025 63.5243407269
0.028050461357549076 66.1463897395
0.031473135294854154 68.4430975951
0.03531343861556889 70.5060272339
0.03962232981152785 72.2794623682
0.04445698525097307 73.7350255494
0.049881557874221966 74.8494045746
0.055968028464208446 75.5784296888
0.06279716078773956 75.8220814256
0.07045957328161137 75.7001254541
0.07905694150420949 75.2004219379
0.08870334730839384 74.328996816
0.09952679263837423 73.1027217744
0.11167089803774087 71.5418121157
0.12529680840681812 69.5930649712
0.14058533129758727 67.3690958258
0.15773933612004823 64.8989922283
0.17698644609603434 62.2198438163
0.19858205868107054 59.3703160886
0.22281273453343647 56.3853855938
0.25 53.2484816188
0.2805046135754908 50.0596404453
0.3147313529485419 46.8503166062
0.35313438615568854 43.6560899372
0.39622329811527857 40.5089250715
0.4445698525097307 37.4320274064
0.4988155787422197 34.4196446274
0.559680284642085 31.5314440994
0.6279716078773949 28.7805698252
0.7045957328161138 26.1775968202
0.7905694150420949 23.7296769876
0.8870334730839383 21.4402144868
0.9952679263837434 19.2983062917
1.1167089803774075 17.3213956819
1.2529680840681814 15.5046469301
1.4058533129758728 13.8411804285
1.5773933612004825 12.3234518346
1.769864460960345 10.9440409762
1.9858205868107033 9.68828489957
2.228127345334365 8.55441081318
2.5 7.5360107441
2.8050461357549077 6.62364706876
3.1473135294854186 5.80790609709
3.531343861556885 5.08091815893
3.962232981152785 4.4306026072
4.445698525097307 3.85583438548
4.988155787422198 3.34810702292
5.59680284642085 2.90055769446
6.279716078773949 2.50718370917
7.045957328161137 2.16241919215
7.905694150420948 1.85946629532
8.870334730839383 1.59531034329
9.952679263837434 1.36572657806
11.167089803774076 1.16665135934
12.529680840681811 0.994376962454
14.058533129758727 0.845624397507
15.773933612004825 0.717092093458
17.698644609603452 0.606666976302
19.858205868107035 0.512046475273
22.281273453343648 0.431176502667
25.0 0.362223468977
28.05046135754909 0.303555206952
31.47313529485419 0.253645143088
35.31343861556885 0.211395566257
39.622329811527834 0.175775616772
44.45698525097308 0.145792716689
49.881557874222 0.120596955261
55.968028464208494 0.0995031874584
62.797160787739486 0.0817768184402
70.45957328161134 0.0670148365688
79.05694150420948 0.0547417950461
88.70334730839387 0.0445663817229
99.52679263837433 0.0361558993023
111.67089803774076 0.0292230156017
125.29680840681804 0.0234894240324
140.5853312975873 0.0188023844296
157.73933612004834 0.0149726805239
176.9864460960345 0.0118578515746
198.58205868107035 0.00933798032101
222.81273453343638 0.00730691059513
250.0 0.00566571026612
280.5046135754909 0.00435723196558
314.7313529485418 0.00331865075
353.1343861556886 0.00250211907511
396.22329811527834 0.00186694872061
444.5698525097307 0.00137732266262
498.81557874221994 0.000998064267017
559.6802846420849 0.000710958204404
627.9716078773951 0.000497454261189
704.5957328161135 0.000341178411817
790.5694150420949 0.000228845679872
887.0334730839387 0.000149918966833
995.267926383743 9.46773281195e-05
1116.708980377408 5.80239518528e-05
1252.9680840681806 3.44560618949e-05
1405.8533129758728 1.9936999838e-05
1577.393361200483 1.12004616305e-05
1769.8644609603448 6.21211360891e-06
1985.8205868107036 3.5365612148e-06
2228.127345334364 2.07291644471e-06
2500.0 1.44185767992e-06
