E(GeV) dN/dE (GeV^-1)
3.7767762353824985e-05 2.94376421684
4.237612633868266e-05 2.83885248325
4.7546795773833325e-05 2.74021293024
5.3348382301167684e-05 2.68643907924
5.985786944906648e-05 2.61195419958
6.716163415705013e-05 2.50896603535
7.535659294528746e-05 2.40325088855
8.455148793793348e-05 2.31140245574
9.486832980505138e-05 2.28435503097
0.00010644401677007281 2.30929538565
0.00011943215116604907 2.32724995493
0.00013400507764528904 2.33019328801
0.00015035617008818145 2.34252325406
0.00016870239755710473 2.42243805298
0.00018928720334405829 2.4802116923
0.00021238373531524122 2.65218022554
0.00023829847041728465 2.83942570685
0.00026737528144012325 3.0244244006
0.00030000000000000003 3.239836835
0.0003366055362905889 3.54293830235
0.0003776776235382498 3.85564117932
0.0004237612633868266 4.2429058775
0.00047546795773833426 4.69033113226
0.0005334838230116769 5.20355108924
0.0005985786944906635 5.79200843756
0.0006716163415705014 6.44377488202
0.0007535659294528746 7.14347596248
0.0008455148793793365 7.92400126328
0.0009486832980505137 8.81376501227
0.001064440167700726 9.83082549775
0.0011943215116604906 10.9577109597
0.0013400507764528904 12.1011247818
0.0015035617008818175 13.4390356895
0.001687023975571047 14.9218065146
0.001892872033440579 16.5779552107
0.0021238373531524118 18.3828602864
0.0023829847041728467 20.309548225
0.0026737528144012376 22.4236217697
0.003 24.69485283
0.003366055362905889 27.1237344337
0.0037767762353824986 29.7184496769
0.004237612633868266 32.4861060594
0.004754679577383342 35.4357942309
0.005334838230116768 38.5830450923
0.005985786944906636 41.8711494592
0.006716163415705014 45.374456757
0.007535659294528747 49.0455671862
0.008455148793793365 52.8260244715
0.009486832980505138 56.6697668873
0.010644401677007259 60.5759187863
0.011943215116604908 64.4991870516
0.013400507764528904 68.4542405433
0.015035617008818175 72.3878679419
0.016870239755710472 76.2561359899
0.018928720334405787 80.030259461
0.02123837353152412 83.702276255
0.023829847041728466 87.0770581629
0.02673752814401238 90.2223319753
0.03 93.1136199855
0.03366055362905889 95.7167875657
0.03776776235382499 97.9936561193
0.042376126338682665 99.9090370109
0.047546795773833424 101.323611292
0.05334838230116769 102.307561766
0.05985786944906636 102.851217989
0.06716163415705012 102.944331372
0.07535659294528747 102.584908085
0.08455148793793366 101.787918228
0.09486832980505137 100.484529553
0.10644401677007259 98.7669030732
0.11943215116604908 96.6645304927
0.13400507764528904 94.2121939081
0.15035617008818175 91.4428301757
0.16870239755710473 88.3815737215
0.18928720334405788 84.9955079013
0.2123837353152412 81.4252108306
0.23829847041728466 77.6962772354
0.2673752814401238 73.8549446447
0.30000000000000004 69.945347003
0.3366055362905889 65.9924370713
0.37767762353824985 61.9832692002
0.4237612633868266 58.020850349
0.4754679577383342 54.1354383937
0.5334838230116768 50.3485264675
0.5985786944906636 46.6779933459
0.6716163415705014 43.1415759216
0.7535659294528747 39.7356660141
0.8455148793793364 36.5007502111
0.9486832980505139 33.4410152649
1.064440167700726 30.5620841795
1.1943215116604908 27.8651466098
1.3400507764528904 25.3438550073
1.5035617008818176 22.9841614078
1.6870239755710472 20.7994832923
1.8928720334405789 18.782818665
2.1238373531524117 16.9268738704
2.3829847041728467 15.2233857395
2.6737528144012375 13.6628890445
3.0 12.2325508921
3.366055362905889 10.9320884904
3.7767762353825023 9.75065516843
4.237612633868262 8.68068503992
4.754679577383342 7.71480891084
5.334838230116768 6.84430946849
5.9857869449066365 6.05796769921
6.71616341570502 5.3523066947
7.535659294528739 4.72084086722
8.455148793793365 4.15659719347
9.486832980505138 3.65322374535
10.64440167700726 3.20547939486
11.94321511660492 2.80645159317
13.400507764528891 2.45305404168
15.035617008818177 2.14051236733
16.87023975571047 1.86465524136
18.92872033440579 1.62166404493
21.23837353152414 1.40795130154
23.82984704172844 1.21969390168
26.737528144012376 1.05480479983
30.0 0.910563684724
33.66055362905889 0.784718798672
37.76776235382503 0.675184543551
42.37612633868262 0.579918161646
47.54679577383342 0.496935888565
53.34838230116768 0.425129220371
59.85786944906637 0.363075571419
67.1616341570502 0.309558376288
75.35659294528739 0.263484583717
84.55148793793364 0.223848741615
94.86832980505139 0.189730068976
106.4440167700726 0.160512051569
119.43215116604921 0.135552459062
134.0050776452889 0.114252753909
150.35617008818173 0.0961026577312
168.70239755710472 0.0806878177896
189.2872033440579 0.0675844631199
212.3837353152414 0.0564862898526
238.29847041728442 0.0471136795131
267.3752814401238 0.0392103466804
300.0 0.0325559752651
336.60553629058904 0.0269675754929
377.67762353825026 0.0222689254525
423.7612633868262 0.0183519934956
475.467957738334 0.0150911810645
533.4838230116769 0.0123806238237
598.5786944906639 0.0101309671642
671.616341570502 0.00826678572346
753.5659294528738 0.00672228002174
845.5148793793361 0.00545056384529
948.6832980505137 0.00440456152818
1064.4401677007265 0.00354650895657
1194.321511660492 0.00284527797689
1340.050776452889 0.00227471362203
1503.5617008818167 0.00180868040162
1687.0239755710472 0.00143132828676
1892.87203344058 0.00112702402412
2123.837353152414 0.000882592617248
2382.984704172844 0.000687065752584
2673.7528144012367 0.000531380322026
3000.0 0.000407183504106
3366.055362905891 0.000309408053293
3776.776235382502 0.000233094150137
4237.612633868263 0.000173885658767
4754.67957738334 0.000128287635351
5334.8382301167685 9.35711153473e-05
5985.786944906639 6.70934851874e-05
6716.163415705018 4.736455827e-05
7535.65929452874 3.28523820145e-05
8455.148793793362 2.23486935221e-05
9486.832980505138 1.48914311971e-05
10644.401677007265 9.71185190509e-06
11943.215116604915 6.13052183049e-06
13400.507764528895 3.78881650517e-06
15035.617008818168 2.29633712973e-06
16870.23975571047 1.37584698981e-06
18928.720334405796 8.17735660734e-07
21238.373531524136 4.93751300893e-07
23829.847041728444 3.06924058594e-07
26737.528144012365 1.92981666506e-07
30000.0 1.37541062419e-07
