E(GeV) dN/dE (GeV^-1)
6.294627058970832e-05 2.628689453
7.062687723113777e-05 2.58263836022
7.924465962305555e-05 2.55387845098
8.891397050194613e-05 2.52525273449
9.976311574844414e-05 2.51618254559
0.00011193605692841689 2.56069729381
0.0001255943215754791 2.65222076477
0.00014091914656322248 2.71512741801
0.00015811388300841897 2.79616042668
0.000177406694616788 2.86417908256
0.00019905358527674846 2.96069830203
0.00022334179607548177 3.11707914382
0.0002505936168136357 3.33441287853
0.00028117066259517455 3.57882399708
0.00031547867224009714 3.90271978595
0.0003539728921920687 4.26720870829
0.0003971641173621411 4.67357078475
0.0004456254690668721 5.10383799761
0.0005 5.56678666904
0.0005610092271509815 6.17137017035
0.0006294627058970831 6.8380423015
0.0007062687723113777 7.56344091206
0.0007924465962305571 8.38943590723
0.0008891397050194614 9.32829337006
0.0009976311574844392 10.3677168695
0.0011193605692841689 11.4886072071
0.001255943215754791 12.7310054624
0.0014091914656322276 14.100787728
0.0015811388300841897 15.6656398601
0.0017740669461678766 17.3931558817
0.0019905358527674845 19.2225028152
0.0022334179607548174 21.2008050463
0.0025059361681363623 23.3311849979
0.002811706625951745 25.6640449897
0.0031547867224009647 28.2043432968
0.0035397289219206863 30.9290428078
0.003971641173621411 33.8029074197
0.0044562546906687294 36.8070825265
0.005 40.0252743234
0.005610092271509815 43.4181282972
0.0062946270589708305 46.9473587136
0.007062687723113777 50.6471985113
0.00792446596230557 54.5419654231
0.008891397050194613 58.5173348214
0.009976311574844394 62.5333178829
0.011193605692841689 66.6430006371
0.012559432157547911 70.7698256332
0.014091914656322275 74.880933605
0.015811388300841896 78.9584890185
0.017740669461678765 82.9572751018
0.019905358527674846 86.7487875191
0.022334179607548174 90.3919505819
0.025059361681363624 93.8169644957
0.028117066259517452 96.9752718259
0.03154786722400965 99.8437827505
0.035397289219206866 102.42778105
0.03971641173621411 104.549834214
0.044562546906687296 106.231013151
0.049999999999999996 107.505395025
0.05610092271509815 108.349186982
0.06294627058970831 108.729633213
0.07062687723113777 108.657548181
0.0792446596230557 108.045340822
0.08891397050194615 106.966355111
0.09976311574844393 105.451177515
0.11193605692841688 103.529569685
0.12559432157547912 101.229692432
0.14091914656322277 98.5776134116
0.15811388300841897 95.5249512381
0.17740669461678765 92.1973126634
0.19905358527674846 88.6411995472
0.22334179607548174 84.8980256711
0.25059361681363623 81.0068781027
0.28117066259517454 77.0067421932
0.31547867224009646 72.8642216755
0.3539728921920687 68.7177033636
0.3971641173621411 64.587899698
0.44562546906687295 60.5022210428
0.5 56.4916086688
0.5610092271509816 52.587769485
0.6294627058970831 48.774927113
0.7062687723113777 45.1068138612
0.792446596230557 41.6049839376
0.8891397050194615 38.2758369443
0.9976311574844393 35.1222685783
1.119360569284169 32.1510327445
1.2559432157547912 29.3487550451
1.4091914656322275 26.7273034897
1.5811388300841898 24.2878084624
1.7740669461678766 22.0254313906
1.9905358527674848 19.9333736775
2.2334179607548172 18.0053273758
2.5059361681363628 16.2191745224
2.811706625951745 14.5840794174
3.1547867224009645 13.090264826
3.5397289219206867 11.72782575
3.971641173621411 10.4879589952
4.45625469066873 9.36349680484
5.0 8.33985578141
5.610092271509815 7.41510384969
6.294627058970837 6.58220685985
7.06268772311377 5.8329976378
7.924465962305571 5.16002328497
8.891397050194614 4.5574102598
9.976311574844393 4.0170930087
11.1936056928417 3.53488268692
12.559432157547898 3.10543750509
14.091914656322276 2.7238340396
15.811388300841896 2.38539297872
17.740669461678767 2.08561393378
19.905358527674867 1.8198873777
22.33417960754815 1.58538614037
25.059361681363626 1.37881225486
28.117066259517454 1.19722652488
31.54786722400965 1.03792667513
35.397289219206904 0.898390466789
39.71641173621406 0.775964821745
44.562546906687295 0.669122546623
50.0 0.576037647441
56.10092271509815 0.495122487363
62.94627058970838 0.424915237972
70.6268772311377 0.36403532273
79.24465962305571 0.311204875441
88.91397050194614 0.265603972537
99.76311574844395 0.226317703862
111.93605692841699 0.192504939081
125.59432157547897 0.163448412528
140.91914656322274 0.138561655342
158.11388300841898 0.117211630914
177.40669461678766 0.0989825945263
199.05358527674866 0.0834307828952
223.3417960754815 0.0701792576796
250.59361681363623 0.0589121849059
281.1706625951746 0.0493656000593
315.4786722400965 0.0412725172145
353.972892192069 0.0344378563886
397.1641173621407 0.0286723950365
445.62546906687294 0.0238170224948
500.0 0.0197373952165
561.0092271509818 0.016319474667
629.4627058970838 0.0134577143335
706.268772311377 0.0110726598157
792.4465962305567 0.00908783562088
889.1397050194614 0.00744131511551
997.6311574844399 0.00607896991505
1119.36056928417 0.0049520626593
1255.9432157547897 0.00401936553226
1409.1914656322267 0.00325213400962
1581.1388300841895 0.00262273365765
1774.0669461678776 0.00210807325941
1990.5358527674866 0.00168845853283
2233.417960754815 0.0013470162924
2505.936168136361 0.00106842855338
2811.7066259517455 0.000843830938672
3154.7867224009665 0.000662987016471
3539.72892192069 0.000518014230821
3971.641173621407 0.000402359343579
4456.254690668728 0.000310404375359
5000.0 0.000237165871377
5610.092271509818 0.000179793410036
6294.6270589708365 0.000135098424183
7062.687723113772 0.000100552933848
7924.465962305567 7.40734907345e-05
8891.397050194615 5.39314367801e-05
9976.311574844398 3.85991109008e-05
11193.605692841698 2.72286702939e-05
12559.4321575479 1.88608167108e-05
14091.91465632227 1.28118572626e-05
15811.388300841898 8.52647646653e-06
17740.66946167877 5.54483038236e-06
19905.35852767486 3.51227835932e-06
22334.179607548158 2.17787189088e-06
25059.36168136361 1.32922452681e-06
28117.066259517454 8.04378149745e-07
31547.867224009664 4.86662962514e-07
35397.2892192069 2.97956191722e-07
39716.411736214075 1.87008440713e-07
44562.546906687276 1.17426282286e-07
50000.0 8.2602810458e-08
