E(GeV) dN/dE (GeV^-1)
1.007140329435333e-05 3.83781760691
1.1300300356982043e-05 3.76634760865
1.2679145539688887e-05 3.63078213257
1.4226235280311383e-05 3.5106874331
1.5962098519751064e-05 3.37377417445
1.79097691085467e-05 3.27361869947
2.0095091452076655e-05 3.15534738964
2.2547063450115594e-05 3.06260825386
2.5298221281347037e-05 2.98705743027
2.838507113868608e-05 2.90701936798
3.184857364427975e-05 2.79542719195
3.5734687372077084e-05 2.67372665175
4.009497869018172e-05 2.53460438402
4.498730601522793e-05 2.39412049869
5.0476587558415546e-05 2.27142421404
5.6635662750730986e-05 2.14710041389
6.354625877794257e-05 2.063959957
7.130007505069953e-05 2.00396541581
8e-05 1.94346780652
8.976147634415704e-05 1.8821053345
0.00010071403294353329 1.79816847425
0.00011300300356982043 1.74481817788
0.00012679145539688913 1.70578254907
0.00014226235280311383 1.68818273957
0.0001596209851975103 1.69232865848
0.00017909769108546703 1.72895565387
0.00020095091452076658 1.78730978851
0.00022547063450115642 1.89535001371
0.0002529822128134703 2.02398891396
0.00028385071138686027 2.14354428134
0.0003184857364427975 2.25270522981
0.0003573468737207708 2.41972261983
0.000400949786901818 2.69382953122
0.00044987306015227926 2.98589302518
0.0005047658755841543 3.29614627424
0.0005663566275073099 3.65237116834
0.0006354625877794258 4.08007978254
0.0007130007505069967 4.56526467826
0.0007999999999999999 5.14204666573
0.0008976147634415704 5.80598046634
0.0010071403294353329 6.52644600906
0.0011300300356982043 7.30133386419
0.0012679145539688914 8.16138168611
0.0014226235280311382 9.16747335791
0.001596209851975103 10.2706936541
0.0017909769108546702 11.5025261488
0.002009509145207666 12.8619307671
0.002254706345011564 14.3672924312
0.0025298221281347035 16.0250481035
0.0028385071138686026 17.7704563954
0.0031848573644279753 19.7603975519
0.003573468737207708 21.886032574
0.00400949786901818 24.157379374
0.004498730601522792 26.5819778193
0.005047658755841544 29.1762719518
0.005663566275073099 31.9833611296
0.0063546258777942575 34.9027247046
0.0071300075050699675 38.0014580964
0.008 41.2278466011
0.008976147634415704 44.5553843977
0.01007140329435333 47.9705640091
0.011300300356982044 51.4494997298
0.012679145539688913 54.9989849862
0.014226235280311384 58.5578695237
0.01596209851975103 62.07515935
0.017909769108546702 65.5343060054
0.02009509145207666 68.9234200782
0.022547063450115642 72.192726321
0.025298221281347035 75.1859865537
0.028385071138686022 77.9544324704
0.03184857364427975 80.4727671124
0.03573468737207708 82.706763271
0.0400949786901818 84.6172799366
0.04498730601522793 86.1654296951
0.050476587558415435 87.2243761797
0.05663566275073099 87.8906889341
0.06354625877794258 88.1569033319
0.07130007505069967 88.0216287268
0.08 87.4891716762
0.08976147634415704 86.5690218285
0.10071403294353329 85.1562309682
0.11300300356982045 83.3624048342
0.12679145539688913 81.2403463903
0.14226235280311383 78.8185992518
0.15962098519751028 76.1248990805
0.17909769108546703 73.206121149
0.20095091452076658 70.0135774729
0.2254706345011564 66.6845579605
0.2529822128134704 63.2362856209
0.28385071138686024 59.715994917
0.31848573644279754 56.1713317222
0.3573468737207708 52.6286643642
0.400949786901818 49.0631689317
0.44987306015227924 45.5766672749
0.5047658755841543 42.19078244
0.5663566275073099 38.921918558
0.6354625877794258 35.7858111586
0.7130007505069967 32.8001695144
0.8 29.9469643749
0.8976147634415704 27.2639935358
1.007140329435334 24.7524889107
1.1300300356982032 22.4123574433
1.2679145539688914 20.241680607
1.4226235280311381 18.2365424523
1.596209851975103 16.3806201783
1.790976910854672 14.6790898136
2.0095091452076637 13.1241023142
2.254706345011564 11.7073399233
2.5298221281347035 10.4204919882
2.8385071138686024 9.25551896978
3.184857364427979 8.19810132631
3.5734687372077043 7.24620186517
4.009497869018181 6.39225622567
4.498730601522793 5.62773201343
5.047658755841544 4.94437574386
5.663566275073104 4.33484643548
6.35462587779425 3.79116571096
7.130007505069967 3.30911197102
8.0 2.88263581233
8.976147634415705 2.50605146028
10.07140329435334 2.17423104697
11.300300356982032 1.88265573937
12.679145539688912 1.62640981536
14.226235280311382 1.40230047104
15.96209851975103 1.20659297711
17.90976910854672 1.03608387754
20.095091452076634 0.887893640551
22.547063450115637 0.759364933215
25.298221281347036 0.647910919309
28.385071138686026 0.55171884532
31.84857364427979 0.468871984774
35.73468737207704 0.397655392348
40.0949786901818 0.336550142605
44.98730601522793 0.284220409123
50.476587558415446 0.239436384509
56.63566275073104 0.201262697819
63.54625877794251 0.168791007502
71.30007505069968 0.141229011939
80.0 0.117892657182
89.76147634415709 0.0981938139781
100.7140329435334 0.0815597474065
113.00300356982032 0.0675856474167
126.79145539688908 0.0558760586398
142.26235280311383 0.0460791188317
159.62098519751038 0.0378972434371
179.0976910854672 0.0310851095172
200.95091452076636 0.0254072008117
225.4706345011563 0.0207086366255
252.98221281347034 0.0168246885277
283.8507113868604 0.0136258729822
318.4857364427979 0.010999370552
357.3468737207704 0.00884296807162
400.9497869018178 0.00706976767569
449.87306015227927 0.00562690430419
504.7658755841546 0.00445574963413
566.3566275073105 0.00350987808255
635.4625877794251 0.00274974072365
713.0007505069964 0.00214079848901
800.0 0.0016509764445
897.6147634415709 0.00126293235365
1007.1403294353338 0.000957189226909
1130.0300356982036 0.000718092219386
1267.9145539688907 0.000532816592901
1422.6235280311384 0.000390740427135
1596.209851975104 0.00028149765021
1790.9769108546716 0.000199623570862
2009.509145207664 0.000138992620274
2254.706345011563 9.48474366871e-05
2529.8221281347037 6.33388361093e-05
2838.507113868604 4.13289413535e-05
3184.8573644279777 2.60996082494e-05
3573.468737207705 1.60520825529e-05
4009.497869018178 9.62131491517e-06
4498.730601522792 5.64809709746e-06
5047.658755841546 3.25691258327e-06
5663.5662750731035 1.87940300157e-06
6354.625877794252 1.11829724425e-06
7130.007505069964 6.80251846923e-07
8000.0 4.77452496042e-07
